"Time (s)","Linear Acceleration x (m/s^2)","Linear Acceleration y (m/s^2)","Linear Acceleration z (m/s^2)","Absolute acceleration (m/s^2)"
6.672083400E-4,1.133837461E0,-1.787842904E0,1.166124719E1,1.185186296E1
1.063420833E-2,1.439761372E-1,-1.977658434E0,8.367196614E0,8.598944190E0
2.060020831E-2,-6.528432356E-1,-2.207846358E0,5.886922925E0,6.321127380E0
3.056720831E-2,-1.202880214E0,-2.400184377E0,4.103041509E0,4.903341257E0
4.053320829E-2,-1.557994704E0,-2.364395032E0,2.784987885E0,3.971633024E0
5.049920839E-2,-1.789370635E0,-2.219556284E0,1.667783779E0,3.302995625E0
6.046620838E-2,-1.966313666E0,-1.972668859E0,5.075412422E-1,2.831149938E0
7.043220836E-2,-1.992183503E0,-1.282555178E0,-5.760495597E-1,2.438355181E0
8.039920835E-2,-1.656267541E0,-5.455145225E-1,-1.744726120E0,2.466754446E0
9.036520834E-2,-1.273489217E0,1.811511994E-1,-2.810272999E0,3.090667383E0
1.003312083E-1,-9.128390948E-1,9.340862685E-1,-3.469237831E0,3.706939910E0
1.102982083E-1,-5.392470017E-1,1.653815950E0,-3.827968020E0,4.204668083E0
1.202642083E-1,-1.751348531E-1,2.260016531E0,-4.076672906E0,4.664505217E0
1.302312083E-1,8.679731168E-2,2.689403158E0,-4.143808297E0,4.940806647E0
1.401972084E-1,1.821483690E-1,3.028296668E0,-4.127363588E0,5.122390938E0
1.501642084E-1,2.711771974E-1,3.372507927E0,-3.947545334E0,5.199082703E0
1.601302084E-1,3.829804192E-1,3.567346509E0,-3.580522624E0,5.068804334E0
1.700962083E-1,4.078592254E-1,3.696723171E0,-3.166012337E0,4.884234379E0
1.800632083E-1,3.686478703E-1,3.839639939E0,-2.752435851E0,4.738632633E0
1.900292083E-1,4.202926717E-1,3.915876814E0,-2.462740813E0,4.644978952E0
1.999962083E-1,6.243976278E-1,3.881216859E0,-2.442677262E0,4.628216601E0
2.099622083E-1,8.733405684E-1,3.861222012E0,-2.706259804E0,4.795372905E0
2.199292083E-1,1.088351239E0,3.872912058E0,-3.183468615E0,5.130148989E0
2.298952084E-1,1.211992076E0,3.824529565E0,-3.907624639E0,5.600489398E0
2.398612084E-1,1.259552232E0,3.714902165E0,-4.773884375E0,6.178749222E0
2.498282084E-1,1.249074022E0,3.521188588E0,-5.596039149E0,6.728640958E0
2.597942083E-1,1.209113053E0,3.195199299E0,-6.260805588E0,7.132246458E0
2.697612083E-1,1.146999470E0,2.714522504E0,-6.752842353E0,7.367843650E0
2.797272083E-1,1.132734968E0,2.296897259E0,-7.083709390E0,7.532447427E0
2.896932083E-1,1.228255156E0,1.799538358E0,-7.187477002E0,7.510444374E0
2.996602083E-1,1.039808751E0,1.218110237E0,-7.221118373E0,7.396590116E0
3.096262084E-1,1.270653171E0,7.851331276E-1,-7.190653794E0,7.344147023E0
3.195932084E-1,1.016838257E0,5.623242442E-1,-7.175825256E0,7.269294099E0
3.295592084E-1,-9.235684432E-2,2.619580387E-1,-7.392987921E0,7.398203985E0
3.395262084E-1,-1.294134127E0,-1.250207797E-2,-7.969860769E0,8.074256629E0
3.494922083E-1,-1.608889746E0,4.942388266E-1,-8.397020338E0,8.564038112E0
3.594582083E-1,-1.453863102E0,4.494263506E-1,-9.179979470E0,9.305252551E0
3.694252083E-1,-8.857764997E-1,2.675951931E-1,-9.604033583E0,9.648506012E0
3.793912083E-1,-8.007079174E-1,4.454075593E-1,-9.959990437E0,1.000204632E1
3.893582083E-1,-8.566850670E-1,1.169341974E0,-9.776856812E0,9.883734066E0
3.993242084E-1,-7.447398309E-1,2.873332589E0,-8.522706238E0,9.024810203E0
4.092902084E-1,-9.338434629E-1,5.116591439E0,-6.177026682E0,8.075099392E0
4.192572084E-1,-1.469851436E0,7.006395750E0,-1.891097131E0,7.404477902E0
4.292232083E-1,-1.761737425E0,7.764755062E0,5.303402962E0,9.566672509E0
4.391902083E-1,-1.574454762E0,7.730509089E0,1.378809587E1,1.588556786E1
4.491562083E-1,-9.268577944E-1,7.087356298E0,2.325858665E1,2.433210919E1
4.591232083E-1,-5.224195921E-1,5.267873526E0,3.108142210E1,3.152900591E1
4.690892083E-1,-9.421298446E-1,2.997071074E0,3.657987941E1,3.671454236E1
4.790552084E-1,-1.170322259E0,1.783690211E0,3.932506529E1,3.938288924E1
4.890222084E-1,-5.312290438E-2,1.370235639E0,3.771104198E1,3.773596501E1
4.989882084E-1,1.439265674E0,5.430405656E-1,3.307851990E1,3.311426969E1
5.089552084E-1,1.536641842E0,-1.579155777E0,2.848736569E1,2.857245185E1
5.189212083E-1,6.877076975E-1,-3.770142273E0,2.475630883E1,2.505118244E1
5.288882083E-1,7.236636152E-1,-6.105607620E0,2.208113049E1,2.292113560E1
5.388542083E-1,1.969975924E-1,-6.885260153E0,1.842890346E1,1.967409714E1
5.488202083E-1,7.778009384E-1,-7.981865687E0,1.548967070E1,1.744262173E1
5.587872083E-1,2.161828624E0,-8.922392664E0,1.258213337E1,1.557538680E1
5.687533333E-1,2.799620834E0,-7.759930524E0,8.858057504E0,1.210452731E1
5.787203333E-1,1.526980487E0,-5.608658609E0,4.475137264E0,7.335909918E0
5.886863334E-1,-9.445181398E-1,-4.759616292E0,7.544048399E-1,4.910721782E0
5.986523334E-1,-1.479157426E0,-4.981797330E0,-2.196570879E0,5.641908805E0
6.086193334E-1,-6.067977279E-2,-5.137542597E0,-4.721502678E0,6.977865971E0
6.185853333E-1,1.314382158E0,-3.254524564E0,-7.518376198E0,8.297319522E0
6.285523333E-1,2.011150847E0,-2.516398957E-1,-9.894643124E0,1.010009965E1
6.385183333E-1,1.581141492E0,1.058287561E-1,-1.076047894E1,1.087653967E1
6.484853333E-1,-4.622739990E-1,-3.752550048E-1,-1.089067187E1,1.090693575E1
6.584513333E-1,-2.219438463E0,-3.680307698E-1,-1.130209249E1,1.152382959E1
6.684173333E-1,-2.594390874E0,-8.765344638E-1,-1.180046705E1,1.211404967E1
6.783843334E-1,-3.020173423E0,-1.510395152E0,-1.216927667E1,1.262909481E1
6.883503334E-1,-4.230659330E0,-1.591436684E0,-1.247394233E1,1.326764434E1
6.983173334E-1,-5.454147105E0,-2.155356195E0,-1.267112331E1,1.396247281E1
7.082833333E-1,-6.032801600E0,-2.865425984E0,-1.253722558E1,1.420518872E1
7.182503333E-1,-5.666029150E0,-3.132763315E0,-1.224259959E1,1.384916376E1
7.282163333E-1,-4.954937561E0,-3.166877140E0,-1.202649234E1,1.338719669E1
7.381823333E-1,-3.926462029E0,-3.629946215E0,-1.150282039E1,1.268497105E1
7.481493333E-1,-2.830829763E0,-4.095472289E0,-1.056807514E1,1.168206756E1
7.581153334E-1,-2.063270735E0,-4.339870116E0,-1.006513507E1,1.115340767E1
7.680823334E-1,-1.318338530E0,-4.746874917E0,-9.914542369E0,1.107108795E1
7.780483334E-1,-6.074704501E-1,-5.491952863E0,-9.756109722E0,1.121214714E1
7.880153334E-1,-3.863958509E-1,-6.116777557E0,-1.001901808E1,1.174499862E1
7.979813333E-1,-2.402971745E-1,-6.470770916E0,-1.033494782E1,1.219589133E1
8.079473333E-1,-2.983687967E-1,-6.503699511E0,-1.060647965E1,1.244526182E1
8.179143333E-1,-5.221500720E-1,-6.460500281E0,-1.057880712E1,1.240652508E1
8.278803333E-1,-5.280287164E-1,-6.203065503E0,-9.962256818E0,1.174748470E1
8.378473333E-1,-2.344886966E-1,-5.938814625E0,-8.979671404E0,1.076842619E1
8.478133334E-1,-2.783735119E-1,-5.658789128E0,-7.595229077E0,9.475594490E0
8.577803334E-1,-3.149061844E-1,-5.327019281E0,-6.928060017E0,8.744959459E0
8.677463334E-1,-8.935101002E-2,-4.861471865E0,-6.668921360E0,8.253266287E0
8.777123333E-1,1.643317567E-1,-4.401756461E0,-6.286778920E0,7.676330768E0
8.876793333E-1,3.877692157E-1,-4.297558494E0,-5.895549322E0,7.305947972E0
8.976453333E-1,4.865957849E-1,-4.267492403E0,-5.462189950E0,6.948653533E0
9.076123333E-1,1.189651108E-1,-3.994696989E0,-5.277982192E0,6.620336302E0
9.175783333E-1,-5.369028895E-1,-4.059305506E0,-5.065804278E0,6.513723887E0
9.275453333E-1,-7.487834729E-1,-4.380169126E0,-4.959987216E0,6.659431766E0
9.375113334E-1,-5.069337165E-1,-4.203049655E0,-5.321640428E0,6.800181250E0
9.474773334E-1,-2.385582125E-1,-3.830657447E0,-5.349652684E0,6.584043616E0
9.574443334E-1,9.331659168E-2,-3.714853048E0,-5.277263569E0,6.454328155E0
9.674103333E-1,3.846576199E-2,-3.667722736E0,-5.336123396E0,6.475174328E0
9.773773333E-1,-2.199823393E-1,-3.749583170E0,-5.205759138E0,6.419321957E0
9.873433333E-1,-6.371425845E-1,-3.658972962E0,-4.980710918E0,6.213011754E0
9.973103333E-1,-9.190371434E-1,-3.035333499E0,-4.352298372E0,5.385200075E0
1.007276333E0,-6.413769919E-1,-1.731502057E0,-3.613357079E0,4.057808916E0
1.017242333E0,-4.231672360E-1,4.873168927E-1,-3.194994062E0,3.259529923E0
1.027209333E0,-2.291300889E-1,2.662320317E0,-2.955233077E0,3.984200372E0
1.037175333E0,8.904508370E-1,3.639215221E0,-2.356688109E0,4.426146062E0
1.047142333E0,2.338082415E0,3.831829521E0,-8.853795469E-1,4.575308055E0
1.057108333E0,1.906732585E0,3.995705341E0,1.176344599E0,4.580947166E0
1.067074333E0,1.217742594E0,5.093849863E0,2.478959820E0,5.794432262E0
1.077041333E0,9.026380424E-1,6.964820877E0,3.033932506E0,7.650374615E0
1.087007333E0,1.293389923E0,7.643230625E0,3.875833912E0,8.666828739E0
1.096974333E0,2.393023292E0,6.693767933E0,5.333248320E0,8.886879501E0
1.106940333E0,3.232663287E0,5.385651652E0,6.442795497E0,8.998053648E0
1.116907333E0,2.766397247E0,4.096653426E0,7.729064827E0,9.174637111E0
1.126873333E0,1.555191987E0,3.663007541E0,1.000619163E1,1.076847794E1
1.136839333E0,6.263432157E-1,3.548471696E0,1.326826553E1,1.374884822E1
1.146806333E0,1.274687165E-1,3.665055236E0,1.679407108E1,1.718981389E1
1.156772333E0,-4.784791186E-1,3.529192549E0,1.880071855E1,1.913507670E1
1.166739333E0,-1.286714011E0,2.759815621E0,1.900132950E1,1.924377141E1
1.176705333E0,-2.387995563E0,1.861645875E0,1.782315765E1,1.807852861E1
1.186672333E0,-3.086646033E0,1.111769704E0,1.543353159E1,1.577838119E1
1.196638333E0,-3.180702297E0,1.015403497E0,1.242514615E1,1.286593052E1
1.206604333E0,-2.835956894E0,1.453717506E0,9.393655441E0,9.919511512E0
1.216571333E0,-2.413046789E0,1.953189591E0,6.326762180E0,7.047387039E0
1.226537333E0,-2.098012990E0,2.204604954E0,3.618388023E0,4.728072905E0
1.236504333E0,-2.028762222E0,2.152285237E0,1.481703157E0,3.308119125E0
1.246470333E0,-2.011072202E0,2.019109931E0,-2.178555608E-2,2.849858053E0
1.256437333E0,-2.104246852E0,1.748960674E0,-8.442683583E-1,2.863478185E0
1.266403333E0,-2.179992269E0,1.491766508E0,-1.072046059E0,2.850792234E0
1.276369333E0,-1.990274387E0,1.450287822E0,-1.188336654E0,2.734350179E0
1.286336333E0,-1.419676479E0,1.347646968E0,-1.147311419E0,2.268911004E0
1.296302333E0,-9.530636993E-1,1.050638233E0,-1.001685929E0,1.736532698E0
1.306269333E0,-4.309669831E-1,6.961235949E-1,-9.907048577E-1,1.285230219E0
1.316235333E0,2.372007814E-1,6.112147146E-1,-1.168783565E0,1.340112928E0
1.326202333E0,3.542364572E-1,5.312888315E-1,-1.481817178E0,1.613546851E0
1.336168333E0,6.238478433E-1,-1.002432033E-1,-2.017415115E0,2.114047913E0
1.346134333E0,1.056261135E0,-6.067451030E-1,-2.239310517E0,2.549183948E0
1.356101333E0,1.474269007E0,-1.947140354E-1,-2.181653463E0,2.640264095E0
1.366067333E0,6.984606539E-1,3.226438048E-1,-2.227859915E0,2.356969688E0
1.376034333E0,5.961762607E-2,8.079983720E-1,-2.009975703E0,2.167122045E0
1.386000333E0,-1.151233439E-1,8.292807752E-1,-1.530999863E0,1.744970077E0
1.395967333E0,2.066014979E-1,5.026304582E-1,-1.152869782E0,1.274531401E0
1.405933333E0,6.918749350E-1,1.515984213E-1,-9.458251387E-1,1.181633700E0
1.415899333E0,7.893790832E-1,-1.194255790E-1,-1.087422482E0,1.349025375E0
1.425866333E0,5.620494251E-1,-1.997195444E-1,-1.493286492E0,1.608008706E0
1.435832333E0,3.466090567E-1,-2.431181636E-1,-1.938827952E0,1.984514577E0
1.445799333E0,4.279848301E-1,-3.874932271E-1,-2.295346139E0,2.366840914E0
1.455765333E0,3.952451733E-1,-4.315286082E-1,-2.389561740E0,2.460170928E0
1.465732333E0,1.284495869E-1,-2.737783313E-1,-2.352709664E0,2.372065900E0
1.475698333E0,-7.006133795E-2,-1.371563834E-1,-2.309440268E0,2.314570114E0
1.485664333E0,-1.153470730E-1,-1.228815758E-1,-2.206460860E0,2.212888238E0
1.495631333E0,-1.126824237E-2,-3.253332317E-2,-2.008054308E0,2.008349445E0
1.505597333E0,6.689777501E-2,1.160204530E-2,-1.826282499E0,1.827544168E0
1.515564333E0,1.471854546E-1,-5.258284092E-2,-1.564527213E0,1.572314826E0
1.525530333E0,2.860938100E-1,-1.625382695E-1,-1.316853191E0,1.357339561E0
1.535497333E0,3.674572311E-1,-2.066587275E-1,-1.224765392E0,1.295292597E0
1.545463333E0,3.944016393E-1,-2.808578476E-1,-1.264817065E0,1.354324921E0
1.555429333E0,3.112523324E-1,-3.638935724E-1,-1.369324350E0,1.450636317E0
1.565396333E0,1.260142216E-1,-4.133238870E-1,-1.481593230E0,1.543319383E0
1.575363000E0,2.796615073E-1,-6.110980627E-1,-1.619499226E0,1.753405014E0
1.585330000E0,4.347050350E-1,-7.862914610E-1,-1.667861547E0,1.894461630E0
1.595296000E0,5.649055707E-1,-1.037677295E0,-1.745321952E0,2.107615047E0
1.605263000E0,8.197468901E-1,-1.486075998E0,-1.809331421E0,2.480743241E0
1.615229000E0,9.617866487E-1,-1.984998152E0,-1.744070647E0,2.811944815E0
1.625195000E0,8.228960542E-1,-2.466678329E0,-1.543557343E0,3.023942652E0
1.635162000E0,5.254584266E-1,-2.741465304E0,-1.380839857E0,3.114234623E0
1.645128000E0,3.057207933E-1,-3.239339345E0,-1.439994383E0,3.558141147E0
1.655095000E0,3.504408833E-1,-3.826637194E0,-1.565967382E0,4.149483687E0
1.665061000E0,4.797443099E-1,-4.124496990E0,-1.854034554E0,4.547425003E0
1.675028000E0,6.331042781E-1,-4.267500297E0,-2.329416695E0,4.902913618E0
1.684994000E0,8.988807678E-1,-4.329238123E0,-2.966256248E0,5.324374657E0
1.694960000E0,1.185050957E0,-4.363276812E0,-3.818296725E0,5.917932087E0
1.704927000E0,1.298772577E0,-3.927896351E0,-4.760254515E0,6.306758518E0
1.714893000E0,2.132535536E0,-3.084220608E0,-5.368251507E0,6.548148503E0
1.724860000E0,2.870329459E0,-2.523765572E0,-4.215425579E0,5.690166665E0
1.734826000E0,3.603734609E0,-9.921269006E-1,-1.126346812E0,3.903828385E0
1.744793000E0,2.433881004E0,1.995602662E0,4.901896298E-1,3.185355961E0
1.754759000E0,-6.316229591E-1,5.331873055E0,-1.361132401E-1,5.370879318E0
1.764725000E0,-3.548319961E0,7.695656176E0,-3.014532030E-1,8.479656394E0
1.774692000E0,-5.016574230E0,7.192968707E0,8.388602686E-1,8.809568796E0
1.784658000E0,-5.544480740E0,7.487547339E0,4.128435967E0,1.019061408E1
1.794625000E0,-4.860868140E0,8.422586703E0,1.035506224E1,1.420546796E1
1.804591000E0,-3.562151257E0,7.887409181E0,1.826814245E1,2.021447931E1
1.814558000E0,-2.381357804E0,7.182116275E0,2.566223667E1,2.675451457E1
1.824524000E0,-3.530675988E-1,6.997201588E0,3.034496763E1,3.114325845E1
1.834490000E0,7.839717975E-1,7.000903460E0,3.062222388E1,3.142209186E1
1.844457000E0,8.079483783E-1,7.524043320E0,2.785500101E1,2.886459925E1
1.854423000E0,2.824629083E-2,7.854662434E0,2.378310294E1,2.504660666E1
1.864390000E0,-1.169541656E0,7.984319179E0,1.972490373E1,2.131171057E1
1.874356000E0,-2.576684043E0,8.093850977E0,1.631878717E1,1.839707963E1
1.884323000E0,-3.742124170E0,7.213404726E0,1.323135440E1,1.552757033E1
1.894289000E0,-4.550615462E0,5.351448948E0,1.071865497E1,1.281544659E1
1.904256000E0,-4.943439596E0,3.407919835E0,8.851827881E0,1.069609132E1
1.914222000E0,-5.054803326E0,1.732769441E0,6.963872459E0,8.777758611E0
1.924188000E0,-4.636216360E0,-3.825877056E-1,4.266885170E0,6.312462637E0
1.934155000E0,-3.440778263E0,-2.039023793E0,9.260662276E-1,4.105383264E0
1.944121000E0,-1.493442320E0,-2.780149899E0,-1.826522820E0,3.646339128E0
1.954088000E0,2.003672697E-1,-3.579353766E0,-4.027396665E0,5.391831259E0
1.964054000E0,6.336817637E-1,-4.619187807E0,-5.878017030E0,7.502635056E0
1.974021000E0,7.601684403E-1,-5.964564593E0,-7.637061812E0,9.720010286E0
1.983987000E0,7.262553205E-1,-6.194492315E0,-9.283155929E0,1.118374561E1
1.993953000E0,9.829134429E-1,-5.948130409E0,-1.106699349E1,1.260256796E1
2.003920000E0,1.481040668E0,-5.260361608E0,-1.296118146E1,1.406616901E1
2.013886000E0,1.897532138E0,-4.624987952E0,-1.489119181E1,1.570791951E1
2.023853000E0,2.114098680E0,-3.834114028E0,-1.598170689E1,1.657060043E1
2.033819000E0,1.348816119E0,-2.600969576E0,-1.657135531E1,1.682837380E1
2.043786000E0,3.686783490E-1,-2.604826984E0,-1.694190039E1,1.714494200E1
2.053752000E0,8.809122741E-2,-3.667506974E0,-1.694940353E1,1.734187555E1
2.063719000E0,1.018773448E-1,-3.911810076E0,-1.619244171E1,1.665856553E1
2.073685000E0,-1.031292428E-1,-4.471364640E0,-1.537342572E1,1.601080747E1
2.083651000E0,-1.848907131E-1,-5.017768232E0,-1.430064993E1,1.515654218E1
2.093618000E0,4.659689551E-2,-5.179909183E0,-1.339180901E1,1.435876663E1
2.103584000E0,1.660588780E-1,-5.298925749E0,-1.245978623E1,1.354077038E1
2.113551000E0,2.036819100E-2,-5.599103090E0,-1.133464745E1,1.264217557E1
2.123517000E0,-3.750276943E-1,-5.991606211E0,-1.009287426E1,1.174334286E1
2.133484000E0,-6.116998874E-1,-6.255374694E0,-8.890066917E0,1.088747809E1
2.143450000E0,-5.043134330E-1,-6.303581479E0,-7.688726056E0,9.955198635E0
2.153417000E0,-3.303562823E-1,-6.460330127E0,-6.286913406E0,9.020547700E0
2.163383000E0,-2.130842328E-1,-6.605289035E0,-5.058565425E0,8.322519588E0
2.173349000E0,1.153626412E-2,-6.696431340E0,-4.625744582E0,8.138786071E0
2.183316000E0,6.184740329E-1,-6.555623955E0,-4.833975626E0,8.168600610E0
2.193282000E0,1.053424432E0,-6.327628738E0,-5.335610011E0,8.343699579E0
2.203249000E0,1.030635347E0,-6.125660062E0,-6.232533715E0,8.799454354E0
2.213215000E0,5.481662348E-1,-5.998641581E0,-7.355168130E0,9.506980870E0
2.223182000E0,1.080243856E-2,-5.582548453E0,-7.989104540E0,9.746320089E0
2.233148000E0,-5.186652777E-1,-5.286089357E0,-8.343463351E0,9.890658979E0
2.243115000E0,-1.110358770E0,-5.178798212E0,-8.687717587E0,1.017493412E1
2.253081000E0,-1.325088410E0,-4.969581327E0,-8.999859501E0,1.036581251E1
2.263047000E0,-9.712942944E-1,-4.846015627E0,-8.866942348E0,1.015135196E1
2.273014000E0,-5.207752454E-1,-4.867086654E0,-8.157696725E0,9.513556391E0
2.282980000E0,-2.945740999E-1,-4.844131362E0,-7.576301056E0,8.997372963E0
2.292947000E0,-1.208872367E-1,-4.433243133E0,-7.290075172E0,8.533080007E0
2.302913000E0,-6.858886287E-2,-3.896679236E0,-7.192730141E0,8.180720040E0
2.312880000E0,-2.524611372E-1,-3.074942538E0,-7.222201862E0,7.853611142E0
2.322846000E0,-4.057137358E-1,-1.432604088E0,-7.326459471E0,7.476226755E0
2.332812000E0,-3.154290716E-1,8.561838144E-1,-7.670547062E0,7.724625457E0
2.342779000E0,-2.846138066E-1,2.915167370E0,-8.533757476E0,9.022428856E0
2.352745000E0,-1.174552135E-1,3.869347011E0,-9.407817982E0,1.017313527E1
2.362712000E0,1.368219227E-1,4.010763091E0,-8.297820570E0,9.217308014E0
2.372678000E0,5.483723491E-1,4.672469097E0,-5.272417982E0,7.066192120E0
2.382645000E0,7.046108285E-1,5.501880265E0,-1.236418893E0,5.682947699E0
2.392611000E0,2.120581926E-1,5.227155855E0,3.587652134E0,6.343451335E0
2.402578000E0,-4.314574184E-1,4.026235993E0,8.665020450E0,9.564481752E0
2.412544000E0,-5.807789339E-1,3.005919958E0,1.344745930E1,1.379155614E1
2.422510000E0,-5.801465575E-1,2.213785667E0,1.613964603E1,1.630109171E1
2.432477000E0,-5.072434728E-1,1.063197468E0,1.718329099E1,1.722362256E1
2.442443000E0,-2.373867229E-1,5.075321791E-1,1.935591635E1,1.936402435E1
2.452410000E0,-5.778579573E-1,1.117404665E0,2.142402040E1,2.146092176E1
2.462376000E0,-1.168106676E0,1.735663521E0,2.177152744E1,2.187181767E1
2.472343000E0,-1.245147178E0,1.964587861E0,2.153902109E1,2.166424304E1
2.482309000E0,-1.058854010E0,2.158831926E0,2.151093809E1,2.164491128E1
2.492276000E0,-2.373262773E-1,2.380853920E0,2.077137056E1,2.090872124E1
2.502242000E0,6.565519052E-1,2.572021181E0,1.984767654E1,2.002440055E1
2.512208000E0,8.238174292E-1,2.591642098E0,1.934267592E1,1.953290546E1
2.522175000E0,5.424408605E-1,2.433007430E0,1.863386240E1,1.879985626E1
2.532141000E0,5.301083518E-1,2.383375094E0,1.667199876E1,1.684983781E1
2.542108000E0,5.264780349E-1,2.264275205E0,1.340396537E1,1.360405855E1
2.552074000E0,3.385898928E-1,1.962476139E0,9.604706013E0,9.808992471E0
2.562041000E0,1.798413500E-1,1.606413450E0,5.845339281E0,6.064725748E0
2.572005958E0,-2.256752981E-2,1.417009856E0,2.616770507E0,2.975888794E0
2.581971958E0,-1.724216719E-1,1.361207246E0,-1.237761998E-1,1.377655598E0
2.591938958E0,-1.828247091E-1,1.425279573E0,-2.707400596E0,3.065104357E0
2.601904958E0,-2.917713102E-1,1.658809765E0,-4.652423673E0,4.947911313E0
2.611871958E0,-5.843279015E-1,1.679569427E0,-5.788185087E0,6.055202652E0
2.621837958E0,-9.863290208E-1,1.353928632E0,-6.094272793E0,6.320294973E0
2.631804958E0,-1.160484977E0,1.051071804E0,-5.837916825E0,6.044232803E0
2.641770958E0,-7.610363133E-1,7.900868887E-1,-5.418200178E0,5.528137727E0
2.651737958E0,-2.394658100E-1,2.476146725E-1,-5.055639478E0,5.067360993E0
2.661703958E0,1.293909156E-1,-1.782488608E-1,-4.844493012E0,4.849497625E0
2.671670958E0,6.953409451E-1,-3.321233109E-1,-4.667563868E0,4.730745965E0
2.681636958E0,1.215999100E0,-5.671661773E-1,-4.344312245E0,4.546798892E0
2.691602958E0,1.342134798E0,-8.560885048E-1,-3.486454958E0,3.832698986E0
2.701569958E0,9.860688928E-1,-1.112088377E0,-2.319408016E0,2.754764230E0
