"Time (s)","Linear Acceleration x (m/s^2)","Linear Acceleration y (m/s^2)","Linear Acceleration z (m/s^2)","Absolute acceleration (m/s^2)"
3.774840600E-2,0.000000000E0,0.000000000E0,0.000000000E0,0.000000000E0
4.274861500E-2,2.282559872E-3,1.177811623E-2,-2.979373932E-2,3.211854611E-2
4.774918800E-2,5.478358269E-2,-2.125644684E-2,-3.391647339E-2,6.784839446E-2
5.275033400E-2,1.498218179E-1,-3.446722031E-2,-3.385734558E-2,1.574194595E-1
5.775220900E-2,2.224710584E-1,-2.070546150E-2,1.398944855E-2,2.238700351E-1
6.275491700E-2,2.664730549E-1,9.740114212E-3,8.660507202E-2,2.803626175E-1
6.775851100E-2,2.609775066E-1,3.597402573E-2,1.638669968E-1,3.102511598E-1
7.276304200E-2,2.353441715E-1,2.594494820E-2,2.393007278E-1,3.366375763E-1
7.776851100E-2,2.026213408E-1,-3.796339035E-3,2.889852524E-1,3.529621736E-1
8.277486500E-2,1.792769432E-1,-3.033733368E-2,3.545742035E-1,3.984764008E-1
8.778205200E-2,1.118206978E-1,-3.259134293E-2,4.263954163E-1,4.420170982E-1
9.278996900E-2,-1.459538937E-2,-4.327368736E-2,5.044088364E-1,5.064720245E-1
9.779845900E-2,-1.659945846E-1,-6.649827957E-2,5.709972382E-1,5.983427691E-1
1.028074170E-1,-3.157065511E-1,-1.019220352E-1,6.051168442E-1,6.900906627E-1
1.078166360E-1,-4.474133849E-1,-1.268270016E-1,6.222677231E-1,7.768403597E-1
1.128259590E-1,-5.498712659E-1,-1.691167355E-1,6.233243942E-1,8.482288487E-1
1.178349170E-1,-6.343194842E-1,-2.192776203E-1,6.089839935E-1,9.062590067E-1
1.228403340E-1,-6.523565650E-1,-2.501204014E-1,5.300102234E-1,8.769493372E-1
1.278457500E-1,-5.849549770E-1,-2.673122883E-1,4.344682693E-1,7.761384295E-1
1.328511670E-1,-4.268587232E-1,-2.576436996E-1,3.724393845E-1,6.223341069E-1
1.378565840E-1,-2.492924333E-1,-2.675797939E-1,4.055814743E-1,5.461153685E-1
1.428620000E-1,-1.384611726E-1,-2.732365131E-1,4.289722443E-1,5.271118238E-1
1.478674170E-1,-4.475814104E-2,-3.159530163E-1,4.063634872E-1,5.166825751E-1
1.528728340E-1,4.664850235E-2,-3.665266037E-1,3.990926743E-1,5.438683633E-1
1.578781980E-1,8.106440306E-2,-3.647282124E-1,4.661254883E-1,5.973868739E-1
1.628835630E-1,5.255109072E-2,-3.632504940E-1,6.783885956E-1,7.713129230E-1
1.678889270E-1,-1.652091742E-2,-3.992369175E-1,9.342308044E-1,1.016095592E0
1.728942920E-1,-8.352464437E-2,-4.161403179E-1,9.280729294E-1,1.020523637E0
1.778996560E-1,-1.039755940E-1,-3.634612560E-1,6.781473160E-1,7.764011791E-1
1.829050210E-1,-1.312553883E-1,-3.127989769E-1,4.095401764E-1,5.317841037E-1
1.879103860E-1,-2.216500640E-1,-2.779467106E-1,2.705888748E-1,4.467677965E-1
1.929157500E-1,-3.182991743E-1,-2.768359184E-1,1.641883850E-1,4.526702065E-1
1.979211150E-1,-3.613015413E-1,-3.130245209E-1,6.129455566E-2,4.819545383E-1
2.029264790E-1,-3.434979618E-1,-3.340024948E-1,-8.959007263E-2,4.874165543E-1
2.079318440E-1,-3.041101396E-1,-3.493931293E-1,-1.804027557E-1,4.970952526E-1
2.129372090E-1,-3.091840446E-1,-3.823499680E-1,-1.618251801E-1,5.176617238E-1
2.179425730E-1,-3.483124673E-1,-4.093976021E-1,-7.397842407E-2,5.425871162E-1
2.229479380E-1,-3.556801975E-1,-4.596493244E-1,2.577686310E-2,5.817648588E-1
2.279533020E-1,-3.463843465E-1,-5.052244663E-1,1.141223907E-1,6.231033598E-1
2.329586670E-1,-3.583790064E-1,-5.422756672E-1,1.682786942E-1,6.714284253E-1
2.379640310E-1,-3.913011551E-1,-5.623629093E-1,1.939716339E-1,7.120348520E-1
2.429693960E-1,-4.259077609E-1,-5.383188725E-1,1.592769623E-1,7.046657221E-1
2.479747610E-1,-4.579879045E-1,-4.901502132E-1,6.561851501E-2,6.740222116E-1
2.529801250E-1,-4.553559422E-1,-4.230277538E-1,-2.495288849E-2,6.220322832E-1
2.579854900E-1,-4.329361916E-1,-3.607013226E-1,-1.079416275E-1,5.737513268E-1
2.629908540E-1,-4.189647138E-1,-3.500409126E-1,-1.835613251E-1,5.759816247E-1
2.679962190E-1,-4.037923515E-1,-3.287899494E-1,-2.989683151E-1,6.004441251E-1
2.730015840E-1,-3.825547397E-1,-3.297457695E-1,-4.300518036E-1,6.633437685E-1
2.780069480E-1,-3.691889346E-1,-3.283693790E-1,-5.767650604E-1,7.594635300E-1
2.830123130E-1,-3.446436226E-1,-3.098921776E-1,-7.437915802E-1,8.763779454E-1
2.880176770E-1,-2.852463126E-1,-2.692606449E-1,-8.700056076E-1,9.543461170E-1
2.930230420E-1,-2.191839665E-1,-1.919035912E-1,-9.518156052E-1,9.954001937E-1
2.980284590E-1,-1.784813255E-1,-1.249239445E-1,-1.009045601E0,1.032295791E0
3.030338750E-1,-1.433055103E-1,-7.702255249E-2,-1.056410789E0,1.068865145E0
3.080392920E-1,-1.035845578E-1,-5.661773682E-2,-1.089588165E0,1.095964278E0
3.130447090E-1,-4.974390566E-2,-6.273269653E-3,-1.099587440E0,1.100729917E0
3.180501250E-1,1.825220883E-2,4.593515396E-2,-1.077595711E0,1.078728741E0
3.230555420E-1,8.234843612E-2,1.237187386E-1,-1.028927803E0,1.039605702E0
3.280609590E-1,1.385276467E-1,1.891145706E-1,-9.587516785E-1,9.869949395E-1
3.330663750E-1,1.405305713E-1,2.279701233E-1,-9.379501343E-1,9.754330695E-1
3.380717920E-1,1.222201586E-1,2.265985012E-1,-9.280185699E-1,9.630696310E-1
3.430772090E-1,4.582373798E-2,1.999719143E-1,-9.335269928E-1,9.558039693E-1
3.480826250E-1,-5.520252883E-2,1.532325745E-1,-9.259519577E-1,9.401673091E-1
3.530880420E-1,-1.577016413E-1,9.569883347E-2,-8.346414566E-1,8.547832681E-1
3.580934590E-1,-2.672960758E-1,4.110574722E-2,-6.983652115E-1,7.488997551E-1
3.630988750E-1,-3.563967347E-1,-3.985667229E-2,-5.315866470E-1,6.412421930E-1
3.681042920E-1,-3.834993243E-1,-1.334717274E-1,-3.816089630E-1,5.572358876E-1
3.731097090E-1,-3.548102677E-1,-1.976282597E-1,-2.574043274E-1,4.808370232E-1
3.781151250E-1,-3.091247976E-1,-2.470874786E-1,-1.396245956E-1,4.196491276E-1
3.831205420E-1,-2.182694077E-1,-2.727897167E-1,-6.585025787E-2,3.555165543E-1
3.881259590E-1,-1.392305493E-1,-2.847702503E-1,-2.593135834E-2,3.180435138E-1
3.931313750E-1,-8.627930284E-2,-2.834234238E-1,1.844787598E-2,2.968388104E-1
3.981367920E-1,-6.408285350E-2,-2.879188061E-1,8.615398407E-2,3.072887241E-1
4.031422090E-1,-4.390883818E-2,-2.887301445E-1,1.579971313E-1,3.320484542E-1
4.081476250E-1,-1.580091938E-2,-3.049521446E-1,2.623281479E-1,4.025686733E-1
4.131530420E-1,3.481511772E-2,-3.461346626E-1,3.279466629E-1,4.780902747E-1
4.181588750E-1,6.073634326E-2,-3.647537231E-1,3.884677887E-1,5.363221092E-1
4.231647090E-1,6.195924431E-2,-3.518002033E-1,4.345598221E-1,5.625340612E-1
4.281703340E-1,7.617913932E-2,-2.744750977E-1,4.096603394E-1,4.989603533E-1
4.331757500E-1,8.435684443E-2,-1.995069981E-1,3.476772308E-1,4.096322452E-1
4.381811670E-1,8.203727752E-2,-1.549172401E-1,2.915315628E-1,3.401765987E-1
4.431865840E-1,6.496939063E-2,-1.019809246E-1,2.362689972E-1,2.654132057E-1
4.481920000E-1,4.773045331E-2,-5.467510223E-2,1.770505905E-1,1.913490909E-1
4.531974170E-1,3.083180636E-2,3.469562531E-2,1.564044952E-1,1.631464153E-1
4.582027810E-1,4.776622355E-2,5.702280998E-2,1.170282364E-1,1.386680247E-1
4.632081460E-1,6.952938437E-2,6.994009018E-2,1.017093658E-1,1.416712625E-1
4.682135110E-1,1.062281281E-1,8.791041374E-2,8.645153046E-2,1.627468069E-1
4.732188750E-1,1.627144814E-1,1.537358761E-1,8.537769318E-2,2.395831224E-1
4.782242400E-1,2.196307629E-1,2.289657593E-1,9.834480286E-2,3.321666618E-1
4.832296040E-1,2.394327223E-1,3.276174068E-1,1.252212524E-1,4.246664054E-1
4.882349690E-1,2.323455811E-1,3.784174919E-1,8.061027527E-2,4.513117367E-1
4.932403340E-1,2.319416404E-1,4.151995182E-1,-3.002929688E-2,4.765388999E-1
4.982456980E-1,2.144272774E-1,3.912031651E-1,-1.445512772E-1,4.689499391E-1
5.032510630E-1,1.939518452E-1,3.450195789E-1,-2.203130722E-1,4.529830878E-1
5.082564270E-1,1.417986006E-1,3.479402065E-1,-2.577285767E-1,4.556240223E-1
5.132617920E-1,1.050539911E-1,3.942623138E-1,-3.186759949E-1,5.177195214E-1
5.182671560E-1,4.460541904E-2,4.452838898E-1,-3.649034500E-1,5.774269770E-1
5.232725210E-1,3.035321832E-3,4.627492428E-1,-3.917484283E-1,6.063108988E-1
5.282778860E-1,-5.810445547E-2,4.799797535E-1,-4.040975571E-1,6.301202482E-1
5.332832500E-1,-7.692956179E-2,4.494764805E-1,-4.162940979E-1,6.174528645E-1
5.382886150E-1,-7.286573201E-2,4.098360538E-1,-4.521007538E-1,6.145486942E-1
5.432939790E-1,-1.275762171E-2,3.755657673E-1,-4.828996658E-1,6.118860104E-1
5.482993440E-1,6.942925602E-2,3.658268452E-1,-4.993238449E-1,6.228755930E-1
5.533047090E-1,1.877682209E-1,4.044916630E-1,-5.016174316E-1,6.711858595E-1
5.583100730E-1,2.514376938E-1,4.199616909E-1,-4.519681931E-1,6.662311785E-1
5.633154380E-1,2.989634871E-1,4.217927456E-1,-3.935003281E-1,6.497159341E-1
5.683208020E-1,3.875418901E-1,4.381721020E-1,-3.119506836E-1,6.629455004E-1
5.733261670E-1,4.797492027E-1,4.687631130E-1,-2.501688004E-1,7.158788880E-1
5.783315310E-1,5.666443706E-1,5.465967655E-1,-1.842336655E-1,8.085764715E-1
5.833368960E-1,6.484673619E-1,5.571699142E-1,-1.473331451E-1,8.675570808E-1
5.883422610E-1,6.582490206E-1,5.530354977E-1,-6.320476532E-2,8.620527113E-1
5.933476250E-1,6.346712112E-1,5.057480335E-1,2.980518341E-2,8.120818732E-1
5.983530420E-1,5.879039764E-1,4.486503601E-1,1.127042770E-1,7.480778604E-1
6.033584590E-1,4.424495399E-1,3.674809933E-1,1.618824005E-1,5.975029601E-1
6.083638750E-1,2.613396049E-1,3.239464760E-1,1.871719360E-1,4.563694140E-1
6.133692920E-1,1.163490266E-1,2.753484249E-1,1.934289932E-1,3.560458208E-1
6.182745000E-1,-7.462024689E-3,2.027292252E-1,1.191082001E-1,2.352479200E-1
6.231877290E-1,-8.712555468E-2,1.211631298E-1,2.712249756E-3,1.492605862E-1
6.281123650E-1,-1.520825475E-1,8.335232735E-2,-1.127815247E-1,2.068728693E-1
6.330511670E-1,-1.980523765E-1,6.548976898E-2,-2.274675369E-1,3.086343047E-1
6.380062710E-1,-2.109769881E-1,8.185696602E-2,-2.416744232E-1,3.310866642E-1
6.429790310E-1,-2.288970649E-1,1.038832664E-1,-2.750072479E-1,3.725782948E-1
6.479700210E-1,-2.092619836E-1,1.413767338E-1,-2.466650009E-1,3.530178201E-1
6.529790840E-1,-1.664822102E-1,1.755206585E-1,-2.189655304E-1,3.262969987E-1
6.580053860E-1,-1.240778416E-1,2.107927799E-1,-1.443462372E-1,2.840153923E-1
6.630473650E-1,-9.622877836E-2,2.658717632E-1,-3.261852264E-2,2.846256143E-1
6.681029380E-1,-1.159770489E-1,3.209369183E-1,6.384086609E-2,3.471697532E-1
6.731695520E-1,-1.636883616E-1,3.232915401E-1,1.167783737E-1,3.807210110E-1
6.782443440E-1,-1.818636209E-1,3.205981255E-1,1.266126633E-1,3.897284967E-1
6.833241880E-1,-1.801391393E-1,2.748539448E-1,1.222057343E-1,3.506123813E-1
6.884059060E-1,-1.682129353E-1,2.386958599E-1,1.369056702E-1,3.225127403E-1
6.934570520E-1,-1.794061363E-1,2.497918606E-1,1.943511963E-1,3.638061611E-1
6.984624690E-1,-2.268395722E-1,3.173620701E-1,3.083877563E-1,4.972704328E-1
7.034678860E-1,-2.286385894E-1,2.987475395E-1,1.935548782E-1,4.230711380E-1
7.084733020E-1,-2.666687667E-1,2.462000847E-1,2.128286362E-1,4.207407055E-1
7.134787190E-1,-3.216368258E-1,2.450754642E-1,2.702159882E-1,4.863423806E-1
7.184840840E-1,-4.039059579E-1,2.801921368E-1,3.132991791E-1,5.829271241E-1
7.234894480E-1,-4.800967574E-1,3.032510281E-1,2.663412094E-1,6.272094724E-1
7.284948130E-1,-5.787590146E-1,2.999513149E-1,6.839656830E-2,6.554470832E-1
7.335001770E-1,-5.617477894E-1,3.278939724E-1,-2.936162949E-1,7.136424627E-1
7.385055420E-1,-4.974679053E-1,3.636789322E-1,-6.237697601E-1,8.768268906E-1
7.435109060E-1,-4.340919852E-1,4.174938202E-1,-9.082584381E-1,1.089802887E0
7.485162710E-1,-3.904805481E-1,4.756495953E-1,-1.152379036E0,1.306405388E0
7.535216360E-1,-3.710947931E-1,4.769375324E-1,-1.413580894E0,1.537332658E0
7.585270000E-1,-2.248023152E-1,4.508273602E-1,-1.744073391E0,1.815371417E0
7.635323650E-1,-6.793642044E-2,3.983032703E-1,-1.948778152E0,1.990225399E0
7.685377290E-1,8.864729106E-2,3.723697662E-1,-2.119101524E0,2.153394728E0
7.735430940E-1,9.263902903E-2,3.870966434E-1,-2.032168388E0,2.070781051E0
7.785484590E-1,3.201523423E-2,4.275934696E-1,-1.860991001E0,1.909750941E0
7.835538230E-1,-2.534586191E-2,5.263781548E-1,-1.753350735E0,1.830834557E0
7.885591880E-1,-9.815755486E-2,5.923895836E-1,-1.537683964E0,1.650767184E0
7.935645520E-1,-9.522853792E-2,6.020579338E-1,-1.390553474E0,1.518282317E0
7.985699170E-1,-8.310761303E-2,5.034682751E-1,-1.306602478E0,1.402710667E0
8.035752810E-1,-1.090541333E-1,3.969900608E-1,-1.285240173E0,1.349568900E0
8.085806460E-1,-1.954074800E-1,3.254246712E-1,-1.273710251E0,1.329068510E0
8.135860110E-1,-2.504363358E-1,2.604384422E-1,-1.324264526E0,1.372670054E0
8.185880420E-1,-2.930339575E-1,1.974120140E-1,-1.355702400E0,1.400988723E0
8.235900730E-1,-3.371760547E-1,1.409902573E-1,-1.349160194E0,1.397783665E0
8.285925210E-1,-3.870937228E-1,6.232905388E-2,-1.366607666E0,1.421739418E0
8.335954900E-1,-4.145557284E-1,-6.242620945E-2,-1.431507587E0,1.491632480E0
8.385990310E-1,-4.772816598E-1,-1.859061718E-1,-1.533841610E0,1.617105121E0
8.436031980E-1,-6.024961472E-1,-2.747348547E-1,-1.611583233E0,1.742320684E0
8.486080420E-1,-7.579938173E-1,-4.156939983E-1,-1.706654072E0,1.913118984E0
8.536135630E-1,-8.565294147E-1,-5.798176527E-1,-1.767721176E0,2.048089184E0
8.586197090E-1,-8.218325377E-1,-7.959429026E-1,-1.885301590E0,2.205288169E0
8.636264270E-1,-6.276458502E-1,-1.068891764E0,-2.192244530E0,2.518413190E0
8.686336670E-1,-4.159827828E-1,-1.360730648E0,-2.482712269E0,2.861553736E0
8.736413230E-1,-2.519009709E-1,-1.510284305E0,-2.623472691E0,3.037601313E0
8.786492920E-1,-1.593641192E-1,-1.556469202E0,-2.710681915E0,3.129822638E0
8.836574690E-1,1.925911009E-2,-1.628306746E0,-2.911327362E0,3.335802869E0
8.886656980E-1,2.264406532E-1,-1.782772779E0,-3.067700386E0,3.555325556E0
8.936734590E-1,3.529306054E-1,-1.971784830E0,-3.094393730E0,3.686158975E0
8.986788750E-1,4.279721975E-1,-2.123878956E0,-2.996906281E0,3.698035867E0
9.036842920E-1,4.998385310E-1,-2.230123758E0,-2.766356468E0,3.588316965E0
9.086897090E-1,6.453334689E-1,-2.343881607E0,-2.512853146E0,3.496379156E0
9.136951250E-1,8.404549360E-1,-2.442036867E0,-2.155440807E0,3.363901549E0
9.187005420E-1,1.005238414E0,-2.501696825E0,-1.689743042E0,3.181858391E0
9.237059060E-1,1.094315052E0,-2.519036770E0,-1.268521786E0,3.025263493E0
9.287112710E-1,1.087245107E0,-2.470904827E0,-1.024674416E0,2.887460865E0
9.337166360E-1,9.863594174E-1,-2.381655216E0,-1.028527260E0,2.775437766E0
9.387220000E-1,7.730271816E-1,-2.246348381E0,-1.297786236E0,2.707009639E0
9.437273650E-1,4.617446065E-1,-2.040519476E0,-1.607296944E0,2.638243976E0
9.487327290E-1,1.104832143E-1,-1.795996547E0,-2.109507084E0,2.772693685E0
9.537380940E-1,-2.529862225E-1,-1.554009795E0,-2.651296616E0,3.083556748E0
9.587434590E-1,-7.057842612E-1,-1.284389019E0,-3.013675213E0,3.351122926E0
9.637488230E-1,-1.042638063E0,-9.668161273E-1,-3.197847843E0,3.499722615E0
9.687541880E-1,-1.203234673E0,-7.054637671E-1,-3.452611923E0,3.723705399E0
9.737595520E-1,-1.332139969E0,-5.609964132E-1,-3.553956032E0,3.836654447E0
9.787649170E-1,-1.472266436E0,-4.457836151E-1,-3.498189926E0,3.821468860E0
9.837702810E-1,-1.571565866E0,-3.632243872E-1,-3.262604237E0,3.639551845E0
9.887756460E-1,-1.640371680E0,-2.695108652E-1,-2.757838249E0,3.220112912E0
9.937810110E-1,-1.611938119E0,-9.343647957E-2,-2.104296207E0,2.652383344E0
9.987863750E-1,-1.590376616E0,1.017210484E-1,-1.583436966E0,2.246534570E0
1.003791740E0,-1.699311972E0,3.196508884E-1,-1.241896152E0,2.128883257E0
1.008797104E0,-1.968065023E0,5.074307919E-1,-8.643455505E-1,2.208587597E0
1.013802469E0,-2.393309116E0,5.605677366E-1,-3.701953888E-1,2.485801549E0
1.018804500E0,-2.853018761E0,4.937891960E-1,2.302093506E-1,2.904572286E0
1.023806531E0,-3.078325033E0,4.256401062E-1,9.219198227E-1,3.241479704E0
1.028808979E0,-3.068626881E0,5.211045742E-1,1.866373062E0,3.629238118E0
1.033811948E0,-2.946348667E0,7.870244980E-1,3.238580704E0,4.448458497E0
1.038815490E0,-2.481770515E0,1.071703911E0,5.070565224E0,5.746160966E0
1.043819656E0,-1.934746504E0,1.503708482E0,6.746936798E0,7.178129240E0
1.048824500E0,-1.317214370E0,2.167300224E0,8.239747047E0,8.621233981E0
1.053830021E0,-5.326508284E-1,2.657320261E0,9.225958824E0,9.615788272E0
1.058836167E0,3.669303656E-1,2.996327400E0,1.005558395E1,1.049892301E1
1.063842886E0,1.059722424E0,3.377997875E0,1.091997623E1,1.147953667E1
1.068850125E0,1.528745890E0,3.767490864E0,1.187086105E1,1.254784418E1
1.073857781E0,1.734726906E0,3.877513409E0,1.285982132E1,1.354324156E1
1.078865750E0,1.654912591E0,3.750222921E0,1.397184467E1,1.456074693E1
1.083873927E0,1.342234373E0,3.473515272E0,1.547766781E1,1.591933109E1
1.088882156E0,1.002635956E0,2.955281019E0,1.732831192E1,1.760708263E1
1.093889865E0,7.768552303E-1,2.243892908E0,1.920915604E1,1.935536709E1
1.098895281E0,6.543484926E-1,1.530347109E0,2.055408669E1,2.062136304E1
1.103900698E0,6.001848578E-1,1.078577042E0,2.165625954E1,2.169140676E1
1.108906115E0,6.148072481E-1,9.082934856E-1,2.265043640E1,2.267697630E1
1.113911531E0,7.106406689E-1,1.019252300E0,2.340919113E1,2.344214399E1
1.118916948E0,8.975668550E-1,1.350178719E0,2.367716599E1,2.373261043E1
1.123922365E0,1.082216144E0,1.757151127E0,2.320937347E1,2.330093966E1
1.128927729E0,1.091476917E0,2.037697792E0,2.214271164E1,2.226304590E1
1.133933094E0,9.007399678E-1,2.167604208E0,2.047012329E1,2.060426626E1
1.138938459E0,4.591504335E-1,2.174919605E0,1.846544647E1,1.859875823E1
1.143943823E0,-1.900691986E-1,2.215663910E0,1.639162827E1,1.654178860E1
1.148949188E0,-9.469203949E-1,2.245239496E0,1.438153267E1,1.458650885E1
1.153954552E0,-1.592485189E0,2.232873678E0,1.242451668E1,1.272361382E1
1.158959917E0,-2.090697527E0,2.189941883E0,1.042428398E1,1.085507062E1
1.163965281E0,-2.586507082E0,2.055503607E0,8.609351158E0,9.221498866E0
1.168970646E0,-2.955650330E0,1.810924053E0,6.850070000E0,7.677159227E0
1.173976011E0,-3.098690033E0,1.528553486E0,5.050589561E0,6.119379919E0
1.178981375E0,-3.131396770E0,1.257444143E0,3.239121437E0,4.677469315E0
1.183986740E0,-3.097193003E0,9.432177544E-1,1.509916306E0,3.572409758E0
1.188992104E0,-3.048262596E0,6.508822441E-1,-6.228733063E-2,3.117600401E0
1.193997469E0,-2.992766857E0,4.014720917E-1,-1.421876907E0,3.337599023E0
1.199002834E0,-3.004966497E0,1.481027603E-1,-2.484466076E0,3.901836716E0
1.204008198E0,-3.014323473E0,-4.659891129E-2,-3.423313618E0,4.561512204E0
1.209013563E0,-2.931269646E0,-1.635723114E-1,-4.134256363E0,5.070618632E0
1.214018927E0,-2.639620304E0,-2.891135216E-1,-4.599291325E0,5.310806216E0
1.219020906E0,-2.134691477E0,-4.144496918E-1,-4.838359833E0,5.304564272E0
1.224022886E0,-1.575760126E0,-5.033848286E-1,-4.990052223E0,5.257094012E0
1.229025281E0,-1.073575377E0,-4.865915775E-1,-5.139817238E0,5.273239677E0
1.234028198E0,-7.898354530E-1,-4.710643291E-1,-5.306083202E0,5.385189003E0
1.239031740E0,-5.876603127E-1,-4.287989140E-1,-5.583818913E0,5.631007618E0
1.244035906E0,-3.780874014E-1,-4.643893242E-1,-5.977346420E0,6.007268743E0
1.249040750E0,-2.071291208E-1,-5.009617805E-1,-6.385953903E0,6.408921316E0
1.254046271E0,-7.398882508E-2,-5.048763752E-1,-6.780810356E0,6.799982617E0
1.259052417E0,-5.711397529E-2,-5.903697014E-1,-7.238133430E0,7.262394505E0
1.264059136E0,-9.401100874E-2,-6.948084831E-1,-7.547719479E0,7.580215447E0
1.269066375E0,-1.390081644E-1,-9.835131168E-1,-7.832846642E0,7.895575206E0
1.274074031E0,-2.424894571E-1,-1.135246992E0,-8.211527824E0,8.293176477E0
1.279082000E0,-2.693881989E-1,-1.177067041E0,-8.563442230E0,8.648155853E0
1.284090177E0,-2.365510464E-1,-1.153810143E0,-8.840744972E0,8.918856760E0
1.289098406E0,-7.544082403E-2,-1.228172660E0,-9.058257103E0,9.141450713E0
1.294106271E0,2.293566763E-1,-1.347490072E0,-9.092539787E0,9.194705746E0
1.299111688E0,6.656885147E-1,-1.502689123E0,-8.963563919E0,9.112995881E0
1.304117104E0,1.155957222E0,-1.656607628E0,-8.676706314E0,8.908749541E0
1.309122521E0,1.667916059E0,-1.782435894E0,-8.251304626E0,8.604827118E0
1.314127938E0,2.108042240E0,-1.892089844E0,-7.825713158E0,8.322597701E0
1.319133354E0,2.440153599E0,-2.077637196E0,-7.418748379E0,8.081383137E0
1.324138719E0,2.647770882E0,-2.225470304E0,-7.015776634E0,7.822054110E0
1.329144084E0,2.733545303E0,-2.346294403E0,-6.630869865E0,7.546244266E0
1.334149448E0,2.694490910E0,-2.421700716E0,-6.383129597E0,7.339568044E0
1.339154813E0,2.598163843E0,-2.404455185E0,-6.305452824E0,7.231223645E0
1.344160177E0,2.402772188E0,-2.361826181E0,-6.287458897E0,7.133279504E0
1.349165542E0,2.125042677E0,-2.351597071E0,-6.405039310E0,7.146351778E0
1.354170906E0,1.785594225E0,-2.378576994E0,-6.633694649E0,7.269929845E0
