"Time (s)","Linear Acceleration x (m/s^2)","Linear Acceleration y (m/s^2)","Linear Acceleration z (m/s^2)","Absolute acceleration (m/s^2)"
2.153970300E-2,0.000000000E0,0.000000000E0,0.000000000E0,0.000000000E0
2.653991100E-2,-1.800632477E-2,3.852546215E-2,-5.307340622E-2,6.800900980E-2
3.154048400E-2,-2.558040619E-2,7.053422928E-2,-1.017227173E-1,1.263999442E-1
3.654163000E-2,-1.186943054E-2,1.179058552E-1,-9.913444519E-2,1.545002016E-1
4.154350500E-2,-5.811119080E-2,9.131771326E-2,-1.079916954E-2,1.087770992E-1
4.654621300E-2,-1.780309677E-1,2.214843035E-2,1.017581224E-1,2.062529852E-1
5.154980700E-2,-2.894296646E-1,-6.753313541E-2,2.482717037E-1,3.872584331E-1
5.655433800E-2,-3.632898331E-1,-8.217090368E-2,3.988873959E-1,5.457496814E-1
6.155980700E-2,-3.878993988E-1,-6.439781189E-2,5.549550056E-1,6.801382801E-1
6.656616100E-2,-4.237260818E-1,-3.867697716E-2,6.786185503E-1,8.009761781E-1
7.157334900E-2,-4.042692184E-1,-7.942974567E-2,7.822054029E-1,8.840746449E-1
7.658126500E-2,-3.637094498E-1,-1.862630248E-1,8.591054678E-1,9.513362618E-1
8.158975500E-2,-2.714366913E-1,-2.980813384E-1,8.766914606E-1,9.649447025E-1
8.659866100E-2,-1.916999817E-1,-4.378019571E-1,8.705956340E-1,9.931546680E-1
9.160782800E-2,-9.111785889E-2,-5.511167049E-1,8.741590977E-1,1.037393953E0
9.661709900E-2,7.759094238E-3,-6.358965635E-1,8.469986916E-1,1.059165439E0
1.016261090E-1,1.195030212E-1,-6.854741573E-1,8.501596451E-1,1.098602391E0
1.066314740E-1,1.853666306E-1,-6.888917685E-1,8.732352853E-1,1.127595903E0
1.116368380E-1,1.899280548E-1,-6.807624102E-1,9.019858837E-1,1.145900807E0
1.166422030E-1,1.542911530E-1,-6.393767595E-1,9.361975193E-1,1.144147803E0
1.216475670E-1,5.713558197E-2,-6.077202559E-1,9.750773311E-1,1.150375672E0
1.266529320E-1,-1.451091766E-1,-5.626026392E-1,9.993147850E-1,1.155944827E0
1.316582970E-1,-4.076366425E-1,-4.996759892E-1,1.008377552E0,1.196941525E0
1.366636610E-1,-6.876659393E-1,-3.635970354E-1,1.019748569E0,1.282565550E0
1.416690260E-1,-8.705177307E-1,-1.604928970E-1,1.027090311E0,1.355903240E0
1.466743900E-1,-1.034094810E0,8.527815342E-2,1.011108994E0,1.448780811E0
1.516797550E-1,-1.068802834E0,3.547638655E-1,9.397765994E-1,1.466757292E0
1.566851200E-1,-1.062336922E0,5.831851959E-1,8.377934694E-1,1.473282935E0
1.616904840E-1,-1.015957832E0,7.771310806E-1,7.107809782E-1,1.463322464E0
1.666958490E-1,-9.029731750E-1,9.242655039E-1,5.643342733E-1,1.410000159E0
1.717012130E-1,-7.344598770E-1,1.063318491E0,4.081836939E-1,1.355245901E0
1.767065780E-1,-5.488433838E-1,1.185222149E0,2.659749985E-1,1.332937846E0
1.817119420E-1,-3.926506042E-1,1.267289519E0,1.141673326E-1,1.331627351E0
1.867173070E-1,-2.321443558E-1,1.338486195E0,-3.278779984E-2,1.358863987E0
1.917226720E-1,-7.641315460E-2,1.366493464E0,-1.653681397E-1,1.378582597E0
1.967280360E-1,6.564235687E-2,1.394239187E0,-2.885105610E-1,1.425289505E0
2.017334010E-1,1.899986267E-1,1.407716870E0,-3.696316481E-1,1.467785345E0
2.067387650E-1,3.299283981E-1,1.407062769E0,-4.332191348E-1,1.508760154E0
2.117441300E-1,4.152460098E-1,1.402061820E0,-4.753367901E-1,1.537579806E0
2.167494950E-1,4.660644531E-1,1.378825426E0,-4.924197197E-1,1.536506691E0
2.217548590E-1,5.019521713E-1,1.361288190E0,-4.995592833E-1,1.534477434E0
2.267602240E-1,5.185804367E-1,1.335401893E0,-4.882635474E-1,1.513481145E0
2.317655880E-1,5.350885391E-1,1.320067644E0,-4.639248252E-1,1.498040244E0
2.367709530E-1,5.420980453E-1,1.305773973E0,-4.225023389E-1,1.475609768E0
2.417763170E-1,5.210819244E-1,1.283112526E0,-3.971071839E-1,1.440693667E0
2.467816820E-1,4.351348877E-1,1.224072337E0,-3.639363647E-1,1.349127546E0
2.517870470E-1,2.621345520E-1,1.162389994E0,-3.089819551E-1,1.230989386E0
2.567924110E-1,1.444005966E-1,1.088806748E0,-2.607043982E-1,1.128857144E0
2.617977760E-1,6.196308136E-2,1.013161898E0,-1.718975306E-1,1.029507268E0
2.668031400E-1,-9.391784668E-3,9.399886131E-1,-7.576394081E-2,9.430837572E-1
2.718085050E-1,-9.338951111E-2,8.593686819E-1,3.753679991E-2,8.652428235E-1
2.768138700E-1,-2.039117813E-1,7.429376245E-1,1.400486827E-1,7.830389275E-1
2.818192340E-1,-3.264293671E-1,6.432594657E-1,2.648891807E-1,7.684433290E-1
2.868246510E-1,-4.044399261E-1,6.118109822E-1,3.549195528E-1,8.147712690E-1
2.918300670E-1,-5.093326569E-1,5.250368714E-1,4.342882037E-1,8.506995448E-1
2.968354840E-1,-6.360177994E-1,4.448963404E-1,4.936257601E-1,9.198466099E-1
3.018409010E-1,-7.277059555E-1,3.807669878E-1,5.288237333E-1,9.768285405E-1
3.068463170E-1,-7.897882462E-1,3.132950664E-1,5.730553865E-1,1.024847183E0
3.118517340E-1,-8.698816299E-1,2.753418982E-1,6.026023626E-1,1.093451791E0
3.168571510E-1,-8.547410965E-1,2.614631355E-1,6.411200762E-1,1.099991030E0
3.218625670E-1,-9.578676224E-1,2.197504640E-1,6.693847775E-1,1.189065443E0
3.268679840E-1,-9.418802261E-1,2.306322455E-1,6.778380871E-1,1.183128930E0
3.318734010E-1,-9.123935699E-1,2.315211296E-1,6.805222034E-1,1.161539724E0
3.368788170E-1,-9.261989594E-1,1.797877848E-1,6.490485072E-1,1.145177770E0
3.418842340E-1,-8.930444717E-1,1.046974659E-1,5.744014978E-1,1.066970978E0
3.468896510E-1,-7.522592545E-1,1.201422513E-1,4.905189872E-1,9.060557506E-1
3.518950670E-1,-5.194816589E-1,2.250485420E-1,3.977897763E-1,6.919138287E-1
3.569004840E-1,-3.469018936E-1,3.382559419E-1,3.105964661E-1,5.755242573E-1
3.619059010E-1,-1.438684464E-1,4.502615333E-1,2.103393078E-1,5.173743351E-1
3.669113170E-1,-4.284763336E-2,5.377460718E-1,1.540918350E-1,5.610267828E-1
3.719167340E-1,8.510303497E-2,7.000205517E-1,6.105750799E-2,7.078130534E-1
3.769221510E-1,4.134368896E-2,7.608783245E-1,1.701325178E-2,7.621906429E-1
3.819275670E-1,2.657413483E-2,7.451856136E-1,1.197957993E-2,7.457555187E-1
3.869329840E-1,-1.630592346E-2,6.730386615E-1,-6.821811199E-3,6.732707183E-1
3.919384010E-1,-9.166145325E-2,6.022281647E-1,-1.577758789E-2,6.093681290E-1
3.969438170E-1,-1.471242905E-1,5.564406514E-1,3.680622578E-2,5.767377685E-1
4.019492340E-1,-1.735324860E-1,4.693312347E-1,7.904744148E-2,5.065903962E-1
4.069546510E-1,-1.996307373E-1,4.123679101E-1,1.204907298E-1,4.737274961E-1
4.119600670E-1,-1.308460236E-1,3.803390563E-1,1.615037322E-1,4.334304271E-1
4.169654840E-1,-1.564025879E-2,3.629554212E-1,1.927510500E-1,4.112593133E-1
4.219709010E-1,4.613590240E-2,3.171684742E-1,2.050527930E-1,3.804878585E-1
4.269763170E-1,5.989646912E-2,2.621546388E-1,2.177256942E-1,3.460016178E-1
4.319817340E-1,3.098869324E-2,2.171772122E-1,2.262920737E-1,3.151735129E-1
4.369871510E-1,-2.189636230E-3,2.015126944E-1,2.452573180E-1,3.174323747E-1
4.419925670E-1,-1.695632935E-3,2.009122074E-1,2.559303045E-1,3.253750313E-1
4.469979840E-1,1.316165924E-2,1.868728101E-1,2.963634133E-1,3.506079708E-1
4.520034010E-1,8.007907867E-2,1.829835474E-1,2.904796004E-1,3.525252271E-1
4.570088170E-1,8.953952789E-2,1.651003361E-1,2.619714141E-1,3.223421627E-1
4.620142340E-1,8.947658539E-2,1.332243383E-1,2.436723709E-1,2.917721851E-1
4.670196510E-1,7.048702240E-2,9.671142697E-2,1.878134012E-1,2.227002338E-1
4.720250670E-1,8.481884003E-2,3.171801567E-2,1.180701852E-1,1.487979730E-1
4.770304840E-1,4.209995270E-2,-1.421910524E-2,3.438365459E-2,5.618562694E-2
4.820359010E-1,-1.443481445E-2,-5.548113585E-2,-4.890382290E-2,7.535319633E-2
4.870413170E-1,-6.567764282E-2,-6.824824214E-2,-1.079729795E-1,1.436298703E-1
4.920467340E-1,-1.117153168E-1,-4.804003239E-2,-1.480296850E-1,1.915749054E-1
4.970521510E-1,-1.336469650E-1,2.865880728E-2,-1.644961834E-1,2.138734038E-1
5.020575670E-1,-1.933450699E-1,6.670865417E-2,-1.530836821E-1,2.554740188E-1
5.070629840E-1,-2.667531967E-1,1.234576404E-1,-1.284527183E-1,3.207789858E-1
5.120684010E-1,-3.489961624E-1,1.373097301E-1,-9.068059921E-2,3.858435621E-1
5.170738170E-1,-4.163112640E-1,1.845444739E-1,-3.999125957E-2,4.571334950E-1
5.220792340E-1,-4.072246552E-1,2.127290666E-1,2.350312471E-2,4.600412725E-1
5.270846510E-1,-3.225202560E-1,2.409094274E-1,8.990967274E-2,4.124808081E-1
5.320900670E-1,-2.055940628E-1,2.499212921E-1,1.402965188E-1,3.527218225E-1
5.370954840E-1,-1.373443604E-1,2.587475181E-1,2.034416795E-1,3.566542701E-1
5.421009010E-1,-7.929611206E-2,2.625928223E-1,2.465915680E-1,3.688499222E-1
5.471063170E-1,-3.127765656E-2,2.615655363E-1,2.990011573E-1,3.984928025E-1
5.521117340E-1,-1.684284210E-2,2.937658131E-1,3.611442447E-1,4.658403157E-1
5.571171510E-1,-4.987716675E-2,3.066666424E-1,4.000803828E-1,5.065535254E-1
5.621225670E-1,-2.105884552E-1,3.434594274E-1,4.303079844E-1,5.894716593E-1
5.671279840E-1,-4.314479828E-1,4.089689851E-1,5.036550760E-1,7.791478860E-1
5.721334010E-1,-6.171007156E-1,4.651902914E-1,5.479590893E-1,9.473512886E-1
5.771388170E-1,-7.537212372E-1,4.980472326E-1,6.339573264E-1,1.103652410E0
5.821442340E-1,-7.658920288E-1,4.934809804E-1,6.847460270E-1,1.139732951E0
5.871496510E-1,-7.022171021E-1,4.755083919E-1,7.143753767E-1,1.108850426E0
5.921550670E-1,-5.585727692E-1,4.681348801E-1,6.994472742E-1,1.010138750E0
5.971604840E-1,-4.162721634E-1,4.475898743E-1,6.503347158E-1,8.924989928E-1
6.021659010E-1,-2.419595718E-1,4.329301119E-1,5.777145624E-1,7.613980771E-1
6.071713170E-1,-8.803462982E-2,4.049605131E-1,5.348009467E-1,6.765760606E-1
6.121767340E-1,7.423305511E-2,4.063068330E-1,4.697142243E-1,6.254816077E-1
6.171821510E-1,2.400522232E-1,3.888894618E-1,4.065708220E-1,6.116861259E-1
6.221875670E-1,3.571405411E-1,3.667634726E-1,3.881164491E-1,6.424166786E-1
6.271929840E-1,4.970912933E-1,3.251486421E-1,3.283672333E-1,6.787093879E-1
6.321984010E-1,5.077142715E-1,2.352019250E-1,3.081993461E-1,6.388118377E-1
6.372038170E-1,4.755191803E-1,1.396012902E-1,2.938488722E-1,5.761546413E-1
6.422092340E-1,3.723154068E-1,9.572535753E-3,2.563905716E-1,4.521576282E-1
6.472146510E-1,2.603750229E-1,-8.334884048E-2,2.096755505E-1,3.445373974E-1
6.522200670E-1,1.729621887E-1,-1.154842675E-1,1.911687851E-1,2.824854672E-1
6.572254840E-1,4.816055298E-2,-6.804081798E-2,1.911868453E-1,2.085698962E-1
6.622309010E-1,-7.570743561E-2,1.596149802E-2,2.048625946E-1,2.189864560E-1
6.672363170E-1,-2.033414841E-1,1.081980765E-1,2.181792855E-1,3.172645324E-1
6.722417340E-1,-3.061876297E-1,1.949408948E-1,2.691612840E-1,4.518856203E-1
6.772470990E-1,-4.129295349E-1,2.432659566E-1,3.100004196E-1,5.707796305E-1
6.822524630E-1,-4.855632782E-1,2.965038419E-1,3.642106652E-1,6.755261905E-1
6.872578280E-1,-5.291395187E-1,3.260709047E-1,3.982914388E-1,7.382052123E-1
6.922631920E-1,-5.961732864E-1,3.274643421E-1,4.451991618E-1,8.129315940E-1
6.972685570E-1,-6.437444687E-1,3.152119517E-1,4.951303899E-1,8.711599271E-1
7.022739220E-1,-5.723085403E-1,3.130072057E-1,4.293033183E-1,7.809045494E-1
7.072792860E-1,-5.015535355E-1,2.968310118E-1,3.533721864E-1,6.815691459E-1
7.122846510E-1,-4.504394531E-1,2.620782852E-1,3.342126906E-1,6.190951874E-1
7.172900150E-1,-3.522815704E-1,2.517311871E-1,3.147745728E-1,5.353073203E-1
7.222953800E-1,-2.454366684E-1,2.227869034E-1,2.715743184E-1,4.285157791E-1
7.273007450E-1,-1.632022858E-1,1.991480887E-1,2.619887590E-1,3.673323525E-1
7.323061090E-1,-7.684326172E-2,1.856157780E-1,2.291574478E-1,3.047478298E-1
7.373114740E-1,-1.014423370E-2,1.440689862E-1,1.969658136E-1,2.442423182E-1
7.423168380E-1,7.031917572E-2,8.424368501E-2,1.181704998E-1,1.612639202E-1
7.473222030E-1,1.407070160E-1,3.931680322E-2,5.524951220E-2,1.561946989E-1
7.523275670E-1,1.868801117E-1,-9.832054377E-3,-2.486634254E-2,1.887834220E-1
7.573329320E-1,1.995429993E-1,-9.650117159E-2,-8.399772644E-2,2.370348133E-1
7.623382970E-1,2.312059402E-1,-1.680930555E-1,-1.413631439E-1,3.188965358E-1
7.673436610E-1,2.247476578E-1,-2.529728413E-1,-2.348647118E-1,4.119080006E-1
7.723490260E-1,2.422122955E-1,-2.655015886E-1,-3.025729060E-1,4.697959697E-1
7.773543900E-1,2.976398468E-1,-2.632513344E-1,-3.305639625E-1,5.168783965E-1
7.823597550E-1,3.811950684E-1,-2.274886370E-1,-3.383703232E-1,5.581713319E-1
7.873651200E-1,3.881378174E-1,-2.061191201E-1,-3.977929354E-1,5.927691594E-1
7.923704840E-1,3.475933075E-1,-1.941611171E-1,-4.420804977E-1,5.949410166E-1
7.973758490E-1,3.311891556E-1,-1.772987843E-1,-4.808010459E-1,6.101563418E-1
8.023812130E-1,3.244647980E-1,-1.651154757E-1,-5.378963947E-1,6.495175570E-1
8.073865780E-1,2.893495560E-1,-1.528779268E-1,-5.989654660E-1,6.825353145E-1
8.123919420E-1,2.593135834E-1,-1.597529650E-1,-6.069791317E-1,6.791083939E-1
8.173973070E-1,2.295455933E-1,-1.571502090E-1,-6.243048310E-1,6.834792532E-1
8.224026720E-1,1.857719421E-1,-1.690608859E-1,-6.320598722E-1,6.801415144E-1
8.274080360E-1,1.423254013E-1,-1.479946971E-1,-6.448113322E-1,6.767130887E-1
8.324134010E-1,1.086711884E-1,-1.609129906E-1,-6.294246912E-1,6.586940561E-1
8.374187650E-1,7.996463776E-2,-1.363712549E-1,-6.052188873E-1,6.255248708E-1
8.424241300E-1,5.142688751E-2,-1.174656153E-1,-5.721191764E-1,5.863132674E-1
8.474294950E-1,3.254508972E-2,-1.136478186E-1,-5.207520127E-1,5.340015621E-1
8.524348590E-1,-1.473712921E-2,-1.151362062E-1,-4.844642282E-1,4.981757896E-1
8.574402760E-1,-5.217838287E-2,-8.367919922E-2,-4.488462806E-1,4.595517116E-1
8.624456920E-1,-9.880161285E-2,-8.592587709E-2,-4.181423187E-1,4.381643684E-1
8.674511090E-1,-1.212587357E-1,-3.590744734E-2,-3.731256723E-1,3.939743559E-1
8.724565260E-1,-1.102590561E-1,8.762240410E-3,-3.423596025E-1,3.597831760E-1
8.774619420E-1,-1.467943192E-1,-3.950655460E-3,-3.209300041E-1,3.529309385E-1
8.824673590E-1,-1.924715042E-1,7.241189480E-3,-3.324924111E-1,3.842511135E-1
8.874727760E-1,-2.377080917E-1,2.809756994E-2,-3.103463650E-1,3.919304486E-1
8.924781920E-1,-2.730073929E-1,5.855262280E-2,-2.737261057E-1,3.910082188E-1
8.974836090E-1,-3.032360077E-1,8.419042826E-2,-2.088143229E-1,3.776817788E-1
9.024890260E-1,-3.569955826E-1,1.142235994E-1,-1.922895908E-1,4.212697039E-1
9.074944420E-1,-3.676290512E-1,9.648275375E-2,-1.812126637E-1,4.210677743E-1
9.124998590E-1,-3.640089035E-1,8.835929632E-2,-1.662474871E-1,4.098146825E-1
9.175052760E-1,-3.699626923E-1,8.498048782E-2,-1.660724878E-1,4.143357916E-1
9.225106920E-1,-3.379249573E-1,1.052852273E-1,-1.425668001E-1,3.815803301E-1
9.275161090E-1,-3.014507294E-1,1.016311049E-1,-1.244090796E-1,3.415831419E-1
9.325215260E-1,-2.083559036E-1,1.075751781E-1,-1.212326288E-1,2.639733923E-1
9.375269420E-1,-1.018371582E-1,1.278752089E-1,-1.043645144E-1,1.939454245E-1
9.425323590E-1,-1.520156860E-2,1.672713757E-1,-1.068142653E-1,1.990479542E-1
9.475377760E-1,1.419591904E-1,2.442594767E-1,-1.137822866E-1,3.045677469E-1
9.525431920E-1,1.981468201E-1,2.776238024E-1,-1.200456619E-1,3.615910659E-1
9.575486090E-1,2.064771652E-1,2.866825461E-1,-1.157195568E-1,3.717670209E-1
9.625540260E-1,2.053737640E-1,2.339551449E-1,-1.149907112E-1,3.318678298E-1
9.675594420E-1,2.756443024E-1,1.865295172E-1,-9.888184071E-2,3.472040619E-1
9.725648590E-1,3.217353821E-1,1.634998322E-1,-7.226514816E-2,3.680599175E-1
9.775702760E-1,2.726373672E-1,1.929867566E-1,-2.077269554E-2,3.346737622E-1
9.825756920E-1,1.718215942E-1,2.361524105E-1,1.710653305E-2,2.925461583E-1
9.875811090E-1,3.867053986E-2,1.975276172E-1,6.029784679E-2,2.101152078E-1
9.925865260E-1,-2.213859558E-2,1.491143703E-1,1.271527410E-1,1.972131649E-1
9.975919420E-1,-2.074241638E-2,1.199056506E-1,1.884480715E-1,2.243218414E-1
1.002597359E0,-4.791164398E-2,1.054598689E-1,2.579662204E-1,2.827788543E-1
1.007602776E0,-2.274131775E-2,9.609240294E-2,3.162260056E-1,3.312850797E-1
1.012608192E0,-1.210594177E-2,9.180921316E-2,3.446525335E-1,3.568765253E-1
1.017613609E0,3.166770935E-2,8.790582418E-2,3.535223007E-1,3.656614484E-1
1.022619026E0,3.232097626E-2,1.267901063E-1,3.573813438E-1,3.805808738E-1
1.027624442E0,6.620693207E-2,1.413332820E-1,3.470706940E-1,3.805476594E-1
1.032629859E0,6.654357910E-2,1.218359470E-1,3.084658980E-1,3.382650679E-1
1.037635276E0,7.632827759E-2,1.255338788E-1,2.891539931E-1,3.243374669E-1
1.042640692E0,4.800796509E-2,1.046870947E-1,2.463436127E-1,2.719362573E-1
1.047646109E0,2.464675903E-2,1.212440729E-1,2.040418983E-1,2.386224721E-1
1.052651526E0,1.095008850E-2,1.038031578E-1,2.001383901E-1,2.257218979E-1
1.057656942E0,2.580356598E-2,1.285675168E-1,1.771340966E-1,2.203903777E-1
1.062662359E0,2.478599548E-3,1.288998723E-1,1.587336063E-1,2.044937122E-1
1.067667776E0,-3.020191193E-2,1.715951264E-1,1.354445219E-1,2.206858885E-1
1.072673192E0,-8.166408539E-2,2.135698795E-1,1.404937506E-1,2.683646963E-1
1.077678609E0,-1.185007095E-1,2.501944304E-1,1.404488087E-1,3.104279933E-1
1.082684026E0,-1.978464127E-1,3.052688241E-1,1.398445368E-1,3.897290757E-1
1.087689442E0,-2.338504791E-1,3.409016430E-1,1.339867115E-1,4.345715311E-1
1.092694859E0,-2.506408691E-1,3.904449046E-1,1.655058861E-1,4.926055898E-1
1.097700276E0,-3.338556290E-1,3.921280205E-1,2.102870345E-1,5.562774509E-1
1.102705692E0,-3.737125397E-1,3.701866865E-1,2.350334525E-1,5.761423166E-1
1.107711109E0,-4.180421829E-1,3.345211744E-1,2.637025714E-1,5.968272187E-1
1.112716526E0,-4.098167419E-1,2.900570035E-1,2.678161860E-1,5.690415949E-1
1.117721942E0,-4.016923904E-1,2.654146552E-1,2.904134989E-1,5.622648096E-1
1.122727359E0,-3.936376572E-1,2.320498526E-1,3.220384121E-1,5.590227885E-1
1.127732776E0,-3.618965149E-1,2.184951007E-1,3.152731657E-1,5.273579103E-1
1.132738192E0,-3.208999634E-1,2.006990910E-1,3.038245440E-1,4.853516922E-1
1.137743609E0,-2.897005081E-1,1.929484606E-1,2.973756790E-1,4.578075877E-1
1.142749026E0,-2.777204514E-1,1.856431067E-1,2.673528194E-1,4.278662668E-1
1.147754442E0,-2.563180923E-1,1.503251791E-1,2.565946579E-1,3.926034162E-1
1.152759859E0,-2.398290634E-1,1.629797220E-1,2.174664140E-1,3.624527702E-1
1.157765276E0,-2.377328873E-1,1.614638269E-1,1.927475333E-1,3.460333867E-1
1.162770692E0,-2.119369507E-1,1.507371366E-1,1.679258347E-1,3.095771977E-1
1.167776109E0,-1.579179764E-1,1.400624812E-1,1.524053812E-1,2.603516586E-1
1.172781526E0,-9.966659546E-2,1.247839630E-1,1.364651918E-1,2.100647906E-1
1.177786942E0,-3.721618652E-2,8.574712276E-2,1.154597998E-1,1.485549695E-1
1.182792359E0,3.890609741E-2,4.683017731E-2,8.953595161E-2,1.082748196E-1
1.187797776E0,1.190929413E-1,3.636783361E-2,5.883634090E-2,1.377224128E-1
1.192803192E0,1.463527679E-1,-1.274126768E-2,3.798913956E-2,1.517387469E-1
1.197808609E0,1.638727188E-1,-2.899742126E-2,1.276588440E-2,1.669074181E-1
1.202814026E0,1.764669418E-1,-3.163132071E-2,-7.443428040E-3,1.794339060E-1
1.207819442E0,1.699638367E-1,-2.986216545E-2,-3.584742546E-3,1.726044758E-1
1.212824859E0,1.207780838E-1,-5.676728487E-2,-1.394617558E-2,1.341803487E-1
1.217830276E0,1.100006104E-1,-7.391434908E-2,-5.172133446E-3,1.326281126E-1
1.222835692E0,7.085704803E-2,-8.613321185E-2,2.752530575E-2,1.148794755E-1
1.227841109E0,3.681659698E-2,-1.124525666E-1,4.590642452E-2,1.269190347E-1
1.232846526E0,-6.433486938E-3,-1.576089859E-1,7.843482494E-2,1.761647069E-1
1.237851942E0,-4.458236694E-2,-1.642084122E-1,1.247910261E-1,2.110089815E-1
1.242857359E0,-9.668540955E-2,-1.513235569E-1,1.798651814E-1,2.541620955E-1
1.247862776E0,-1.436347961E-1,-1.521387398E-1,2.387288809E-1,3.174407494E-1
1.252868140E0,-1.759824753E-1,-1.475398242E-1,2.585622072E-1,3.458211190E-1
1.257873505E0,-1.986036301E-1,-1.423085332E-1,2.633783817E-1,3.592537995E-1
1.262878870E0,-2.020597458E-1,-1.459536254E-1,2.677494287E-1,3.658146501E-1
1.267884234E0,-1.817626953E-1,-1.110159755E-1,2.526851892E-1,3.304724332E-1
1.272889599E0,-1.379013062E-1,-9.030559659E-2,2.327944040E-1,2.852456933E-1
1.277894963E0,-5.642223358E-2,-6.007295847E-2,1.559382081E-1,1.763773045E-1
1.282900328E0,6.714820862E-2,-4.429477453E-2,7.522463799E-2,1.101347136E-1
1.287905692E0,1.707296371E-1,-3.823101521E-2,-4.724013805E-2,1.812232054E-1
1.292911057E0,2.450218201E-1,-4.190564156E-2,-1.538254023E-1,2.923252119E-1
1.297916422E0,3.378000259E-1,-5.036327243E-2,-2.632989883E-1,4.312443321E-1
1.302921786E0,3.824748993E-1,-3.981536627E-2,-3.467998505E-1,5.178247274E-1
1.307927151E0,3.889780045E-1,-5.320110917E-2,-4.042472839E-1,5.635158494E-1
1.312932515E0,3.528652191E-1,-5.701428652E-2,-4.217684269E-1,5.528590215E-1
1.317937880E0,2.982177734E-1,-5.616533756E-2,-3.998026848E-1,5.019268595E-1
1.322943245E0,2.013692856E-1,-6.963166595E-2,-3.298814297E-1,3.927084360E-1
1.327948609E0,1.195840836E-1,-6.408619881E-2,-2.556966543E-1,2.894618679E-1
