"Time (s)","Linear Acceleration x (m/s^2)","Linear Acceleration y (m/s^2)","Linear Acceleration z (m/s^2)","Absolute acceleration (m/s^2)"
2.257194400E-2,0.000000000E0,0.000000000E0,0.000000000E0,0.000000000E0
2.757210000E-2,8.485692739E-2,-2.515339851E-2,1.455450058E-1,1.703430078E-1
3.257262100E-2,1.782793999E-1,-6.405043602E-2,4.508442879E-1,4.890261493E-1
3.757366300E-2,2.540322244E-1,-5.873227119E-2,6.073455811E-1,6.609466738E-1
4.257533000E-2,3.135163188E-1,-7.552337646E-2,6.476635933E-1,7.235083915E-1
4.757772500E-2,3.660838902E-1,-2.292633057E-2,9.165148735E-1,9.871892142E-1
5.258090300E-2,3.861289024E-1,1.635339260E-1,1.284191608E0,1.350920783E0
5.758491300E-2,3.843597770E-1,3.320791721E-1,1.565773010E0,1.646102711E0
6.258975700E-2,3.240184784E-1,3.698351383E-1,1.662052155E0,1.733258021E0
6.759538200E-2,3.036925197E-1,2.116379738E-1,1.579693317E0,1.622482898E0
7.260173600E-2,3.702024817E-1,-1.118698120E-1,1.364032745E0,1.417797610E0
7.760871500E-2,4.097130001E-1,-5.450534821E-1,1.077054977E0,1.274753100E0
8.261621500E-2,3.563264608E-1,-9.622952938E-1,7.938413620E-1,1.297368447E0
8.762413200E-2,2.148771584E-1,-1.236167192E0,5.542817116E-1,1.371681354E0
9.263230900E-2,-1.985225081E-2,-1.347538471E0,3.436055183E-1,1.390797899E0
9.764059000E-2,-3.317729533E-1,-1.356393218E0,1.802692413E-1,1.407967632E0
1.026486110E-1,-7.293290496E-1,-1.200777531E0,1.051597595E-1,1.408845668E0
1.076533500E-1,-1.090276957E0,-9.290254116E-1,7.659912109E-2,1.434454420E0
1.126580900E-1,-1.361433148E0,-6.041785479E-1,1.054277420E-1,1.493200236E0
1.176628300E-1,-1.595651031E0,-2.543138266E-1,1.887674332E-1,1.626779296E0
1.226675690E-1,-1.814312100E0,8.464288712E-2,2.877321243E-1,1.838935179E0
1.276723090E-1,-2.050391912E0,3.964864016E-1,4.109525681E-1,2.128424411E0
1.326770480E-1,-2.239158392E0,6.286569834E-1,6.172137260E-1,2.406240364E0
1.376817880E-1,-2.291523218E0,7.668310404E-1,8.393793106E-1,2.558059055E0
1.426865280E-1,-2.126621723E0,6.771852970E-1,9.164237976E-1,2.412660867E0
1.476912670E-1,-1.854603052E0,6.674350500E-1,1.065664291E0,2.240683469E0
1.526960070E-1,-1.557253838E0,5.455224514E-1,1.326164246E0,2.116918956E0
1.577007460E-1,-1.187510252E0,3.753546476E-1,1.509874344E0,1.957240978E0
1.627054860E-1,-7.965970039E-1,1.171203852E-1,1.656796455E0,1.842079929E0
1.677102250E-1,-3.832534552E-1,-1.339123249E-1,1.847174644E0,1.891261454E0
1.727149650E-1,2.108812332E-2,-3.412572145E-1,2.024454117E0,2.053123393E0
1.777197050E-1,3.867802620E-1,-5.295786858E-1,2.203393936E0,2.298912220E0
1.827244440E-1,6.856201887E-1,-6.575601101E-1,2.412173271E0,2.592496911E0
1.877291840E-1,9.359386563E-1,-6.664969921E-1,2.668838501E0,2.905666594E0
1.927339230E-1,1.172870278E0,-5.691360235E-1,3.060748100E0,3.326818215E0
1.977386630E-1,1.282489538E0,-4.242651463E-1,3.365882874E0,3.626837169E0
2.027434030E-1,1.225326419E0,-2.843574286E-1,3.572918892E0,3.787879801E0
2.077481420E-1,1.088202000E0,-1.910486221E-1,3.731043816E0,3.891191478E0
2.127528820E-1,8.323099613E-1,-3.583276272E-2,3.790076256E0,3.880554327E0
2.177576210E-1,4.883177280E-1,1.986529827E-1,3.798955917E0,3.835359602E0
2.227623610E-1,5.142763257E-3,3.987163305E-1,3.697978973E0,3.719415229E0
2.277671000E-1,-5.322638750E-1,5.236475468E-1,3.480135918E0,3.559333869E0
2.327718400E-1,-1.064589381E0,5.664374828E-1,3.161810875E0,3.383969560E0
2.377765800E-1,-1.548047423E0,5.762606859E-1,2.786961555E0,3.239703986E0
2.427813710E-1,-1.990658641E0,5.823746920E-1,2.459372520E0,3.217203024E0
2.477861630E-1,-2.413857222E0,6.318329573E-1,2.224487305E0,3.342792746E0
2.527909550E-1,-2.819028854E0,6.441608667E-1,2.126939774E0,3.589671253E0
2.577957460E-1,-3.057764530E0,7.041032314E-1,2.229463577E0,3.849180838E0
2.628005380E-1,-3.049625874E0,6.085059643E-1,2.326415062E0,3.883645777E0
2.678053300E-1,-2.518879414E0,4.676330090E-2,1.868671417E0,3.136697813E0
2.728101210E-1,-2.879054070E0,2.544193268E-1,2.143216133E0,3.598201901E0
2.778149130E-1,-3.065071344E0,2.404088974E-1,2.088842392E0,3.716950541E0
2.828197050E-1,-2.890946388E0,1.372212172E-1,1.955414772E0,3.492856655E0
2.878244960E-1,-2.609983444E0,7.538723946E-2,2.049066544E0,3.319091821E0
2.928292880E-1,-2.329439163E0,-8.078384399E-2,2.186509132E0,3.195877818E0
2.978340800E-1,-2.068813562E0,-4.411807060E-1,2.136213303E0,3.006332857E0
3.028388710E-1,-1.602085352E0,-7.040603161E-1,1.990474701E0,2.650352418E0
3.078436630E-1,-9.094909430E-1,-1.376531005E0,1.524581909E0,2.246410777E0
3.128484550E-1,-4.372363091E-1,-1.944909334E0,1.138918877E0,2.295862390E0
3.178532460E-1,-4.944032431E-1,-2.065322638E0,8.560743332E-1,2.289728243E0
3.228580380E-1,-4.893397689E-1,-2.266889572E0,5.150823593E-1,2.375616042E0
3.278628300E-1,-3.310333490E-1,-2.336623669E0,5.089492798E-1,2.414212629E0
3.328676210E-1,-4.113888741E-2,-2.235075951E0,7.066230774E-1,2.344477146E0
3.378724130E-1,5.554038286E-2,-1.985126495E0,1.083157539E0,2.262088016E0
3.428772050E-1,3.077197671E-1,-1.855677843E0,1.609227180E0,2.475448208E0
3.478819960E-1,6.063036919E-1,-1.847982526E0,2.302722931E0,3.014162650E0
3.528867880E-1,9.398851991E-1,-2.061591864E0,2.992303848E0,3.753322198E0
3.578915800E-1,1.041837215E0,-2.264084101E0,3.617534637E0,4.392955549E0
3.628963710E-1,9.937168360E-1,-2.414938927E0,3.797791481E0,4.608972044E0
3.679011630E-1,8.304663897E-1,-2.586440802E0,3.634395599E0,4.537420172E0
3.729059550E-1,5.902978778E-1,-2.703341961E0,3.311968803E0,4.315744049E0
3.779107460E-1,3.282349706E-1,-2.636053324E0,3.116044044E0,4.094660646E0
3.829155380E-1,3.058701754E-2,-2.403791666E0,2.869662285E0,3.743542649E0
3.879203300E-1,-1.594021320E-1,-1.421360016E0,2.690683365E0,3.047203686E0
3.929251210E-1,-1.784214973E-1,-2.499825954E-1,2.657152176E0,2.674842652E0
3.979299130E-1,-1.953637600E-1,4.044240713E-1,2.585627556E0,2.624346716E0
4.029347050E-1,-3.646057844E-1,8.517355919E-1,2.644362450E0,2.801971388E0
4.079394960E-1,-2.947162390E-1,1.379863381E0,2.309386253E0,2.706315850E0
4.129442880E-1,-5.482589006E-1,2.066825867E0,1.321643829E0,2.513781891E0
4.179490800E-1,-8.099303246E-1,2.427060366E0,3.712234497E-1,2.585423756E0
4.229538710E-1,-9.900993109E-1,2.380750656E0,-4.167490005E-1,2.611886303E0
4.279586630E-1,-1.370929718E0,1.532601953E0,-1.074429512E0,2.320068062E0
4.329634550E-1,-2.724824429E0,-5.259141922E-1,-1.253849030E0,3.045224342E0
4.379682460E-1,-4.289484978E0,-2.753910065E0,-1.124689102E0,5.220021800E0
4.429730380E-1,-5.179987907E0,-3.641660213E0,-1.606297493E0,6.532545864E0
4.479778300E-1,-5.745932579E0,-1.169340849E0,-1.689978600E0,6.102386983E0
4.529826210E-1,-4.349652290E0,3.758556843E-1,2.885904312E0,5.233467898E0
4.579874130E-1,-3.061556101E0,1.776409030E0,1.348407745E0,3.787737880E0
4.629922050E-1,-8.348118067E-1,8.819737434E-1,-1.447454453E0,1.889421295E0
4.679969960E-1,7.572423220E-1,-3.225708008E-1,-3.165196896E0,3.270464683E0
4.730017880E-1,1.387971640E0,-9.786396027E-1,-3.516998768E0,3.905570519E0
4.780065800E-1,1.271032810E0,-1.571795464E0,-3.386951923E0,3.944300789E0
4.830113710E-1,1.029610157E0,-1.806365252E0,-3.333160877E0,3.928487486E0
4.880161630E-1,1.036236644E0,-2.010801554E0,-2.225800514E0,3.173530715E0
4.930209550E-1,1.608427763E0,-1.815639019E0,1.003782272E0,2.625102620E0
4.980257460E-1,1.654481649E0,-7.891490459E-1,-9.663591385E-1,2.072176568E0
5.030305380E-1,2.021452188E0,-1.670322418E-1,-2.834209442E0,3.485242012E0
5.080353300E-1,2.828920126E0,3.194413185E-1,-2.751912117E0,3.959526756E0
5.130401210E-1,3.267778873E0,5.731045008E-1,-2.686141491E0,4.268744973E0
5.180449130E-1,3.359073639E0,7.855129242E-1,-2.973435402E0,4.554308329E0
5.230497050E-1,3.592671156E0,5.385389328E-1,-3.435695171E0,5.000131151E0
5.280544960E-1,4.195958614E0,3.581707478E-1,-4.451138973E0,6.127560129E0
5.330592880E-1,4.386816502E0,5.490386486E-2,-5.578725338E0,7.097136736E0
5.380640800E-1,3.946852922E0,-2.505098581E-1,-6.637819767E0,7.726645743E0
5.430688710E-1,2.425157070E0,-5.810838938E-1,-7.017830849E0,7.447751011E0
5.480736630E-1,1.017552018E0,-5.769280195E-1,-6.948230743E0,7.046003726E0
5.530784550E-1,4.905879498E-1,-3.317904472E-2,-7.115952492E0,7.132920668E0
5.580832460E-1,6.010981798E-1,6.371459961E-1,-7.366281033E0,7.418178368E0
5.630880380E-1,1.341599822E0,1.106269360E0,-7.673826218E0,7.868375359E0
5.680928300E-1,1.477434039E0,1.244022846E0,-7.652823448E0,7.892788538E0
5.730976210E-1,1.204816222E0,1.167248249E0,-7.490805626E0,7.676341546E0
5.781024130E-1,1.128219604E0,9.626169205E-1,-7.449867249E0,7.596053767E0
5.831072050E-1,1.042144060E0,6.964117289E-1,-7.405782700E0,7.511103177E0
5.881119960E-1,9.000260234E-1,4.151285887E-1,-7.397220612E0,7.463327097E0
5.931167880E-1,5.978763103E-1,-1.533997059E-2,-7.567231655E0,7.590829093E0
5.981215800E-1,3.289048672E-1,-5.706598759E-1,-8.029083252E0,8.056054181E0
6.031263710E-1,1.373801231E-1,-1.025955200E0,-8.861123085E0,8.921376559E0
6.081311630E-1,-8.279085159E-2,-1.252241135E0,-9.646550179E0,9.727841103E0
6.131359550E-1,-2.127680779E-1,-1.197194338E0,-1.013800144E1,1.021066197E1
6.181407460E-1,-2.872231007E-1,-1.012194514E0,-1.026149368E1,1.031529386E1
6.231455380E-1,-6.170808077E-1,-4.462738037E-1,-1.085590839E1,1.088258683E1
6.281503300E-1,-1.087990284E0,5.061858892E-2,-1.149328136E1,1.154477378E1
6.331551210E-1,-1.330802917E0,6.435936689E-2,-1.182575607E1,1.190057500E1
6.381599130E-1,-1.418709755E0,-2.203913927E-1,-1.204988480E1,1.213511571E1
6.431647050E-1,-1.500674486E0,-6.871111393E-1,-1.216085815E1,1.227235172E1
6.481694960E-1,-1.481825113E0,-1.006766319E0,-1.198758984E1,1.212071343E1
6.531742880E-1,-1.398247957E0,-1.243134737E0,-1.160824680E1,1.175805576E1
6.581790800E-1,-1.237442493E0,-1.293783784E0,-1.120068550E1,1.134286102E1
6.631838710E-1,-1.333627939E0,-1.271265507E0,-1.109867668E1,1.125056903E1
6.681886630E-1,-1.376946926E0,-1.201988578E0,-1.104486275E1,1.119507715E1
6.731934550E-1,-1.332679272E0,-1.012088060E0,-1.097347260E1,1.110033590E1
6.781982460E-1,-1.498485088E0,-6.311351061E-1,-1.093577194E1,1.105598919E1
6.832030380E-1,-1.625072718E0,-6.340111494E-1,-1.087648106E1,1.101547419E1
6.882078300E-1,-1.502382517E0,-1.140647054E0,-1.079274940E1,1.095635289E1
6.932126210E-1,-1.522980213E0,-1.891041517E0,-1.061622620E1,1.089035194E1
6.982174130E-1,-1.774453163E0,-2.594000340E0,-1.026630974E1,1.073660269E1
7.032222050E-1,-2.157260180E0,-3.193363190E0,-9.735288620E0,1.047030011E1
7.082269960E-1,-2.444366932E0,-3.813959122E0,-9.191709518E0,1.024737712E1
7.132317880E-1,-2.506477594E0,-4.560751438E0,-8.688310623E0,1.012766632E1
7.182365800E-1,-2.282900333E0,-5.604605675E0,-8.100629807E0,1.011154993E1
7.232413710E-1,-1.880943060E0,-6.835022926E0,-7.351340771E0,1.021262436E1
7.282461630E-1,-1.398154259E0,-8.056821823E0,-6.272252560E0,1.030574429E1
7.332509550E-1,-1.073659897E0,-9.208816528E0,-4.719525814E0,1.040331540E1
7.382557460E-1,-9.322524071E-1,-1.007751465E1,-2.972282887E0,1.054797903E1
7.432605380E-1,-9.275856018E-1,-1.056931877E1,-1.181492329E0,1.067552521E1
7.482653300E-1,-9.516720772E-1,-1.070505810E1,4.885034561E-1,1.075837275E1
7.532701210E-1,-9.042363167E-1,-1.072903442E1,1.825798273E0,1.092077664E1
7.582749130E-1,-7.574901581E-1,-1.144517517E1,1.495389700E0,1.156728215E1
7.632797050E-1,7.017159462E-1,-1.045647335E1,2.777846098E0,1.084189417E1
7.682844960E-1,1.901910305E0,-9.791294098E0,3.375369787E0,1.052994891E1
7.732892880E-1,3.291975021E0,-8.843063354E0,4.633583546E0,1.051222933E1
7.782940800E-1,4.124637604E0,-8.419925690E0,5.686308384E0,1.096548617E1
7.832988710E-1,4.701005936E0,-8.636810303E0,6.044428825E0,1.154248972E1
7.883036630E-1,5.066843510E0,-8.923917770E0,5.873872757E0,1.182419522E1
7.933084550E-1,5.566269398E0,-9.322723389E0,6.261981010E0,1.253431021E1
7.983132460E-1,6.264407635E0,-1.022717762E1,6.310069561E0,1.355193503E1
8.033180380E-1,7.131622314E0,-1.102094650E1,6.122803688E0,1.448482046E1
8.083228300E-1,7.742161751E0,-1.103625488E1,5.735521317E0,1.465046741E1
8.133276210E-1,8.498687744E0,-1.012052155E1,5.147973537E0,1.418288692E1
8.183324130E-1,9.756732941E0,-8.904192924E0,5.356416702E0,1.425376053E1
8.233372050E-1,1.115420341E1,-7.557849884E0,6.233824730E0,1.484580478E1
8.283419960E-1,1.199224854E1,-6.074522018E0,7.390851974E0,1.534074756E1
8.333467880E-1,1.203969574E1,-4.696871281E0,8.181385040E0,1.529542201E1
8.383515800E-1,1.192583275E1,-3.777868271E0,8.475692749E0,1.511076249E1
8.433563710E-1,1.190695572E1,-3.347770691E0,8.415927887E0,1.496031434E1
8.483611630E-1,1.167325401E1,-3.221122742E0,8.125616074E0,1.458307675E1
8.533659550E-1,1.114191628E1,-3.298535347E0,7.571087837E0,1.386881411E1
8.583707460E-1,1.053593063E1,-3.466847420E0,6.766918659E0,1.299292321E1
8.633755380E-1,9.938620567E0,-3.690223217E0,5.647638798E0,1.201206686E1
8.683803300E-1,9.299253464E0,-3.904710770E0,4.321404457E0,1.097257571E1
8.733851210E-1,8.528717041E0,-4.051915169E0,2.954095840E0,9.893619820E0
8.783899130E-1,7.871295452E0,-4.226385117E0,1.744395971E0,9.102886386E0
8.833947050E-1,7.640605450E0,-4.470138550E0,7.332551479E-1,8.882491396E0
8.883994960E-1,7.491131306E0,-4.734652519E0,-6.221151352E-2,8.862158484E0
8.934042880E-1,7.270481110E0,-4.871230125E0,-7.294867039E-1,8.781852273E0
8.984090800E-1,7.056052685E0,-4.898580551E0,-1.227742672E0,8.677057276E0
9.034138710E-1,6.967926502E0,-4.954379082E0,-1.564607382E0,8.691712609E0
9.084186630E-1,6.963735104E0,-5.194809914E0,-1.848796368E0,8.882437990E0
9.134234550E-1,6.772841454E0,-5.499240875E0,-1.988866687E0,8.948107188E0
9.184282460E-1,6.587285995E0,-5.691033363E0,-2.116997719E0,8.958899311E0
9.234330380E-1,6.445093632E0,-5.723476410E0,-2.111827135E0,8.874526916E0
9.284378300E-1,6.322855473E0,-5.683480263E0,-1.735408306E0,8.677101544E0
9.334426210E-1,6.274022102E0,-5.662312508E0,-1.053117394E0,8.516700800E0
9.384474130E-1,6.303792477E0,-5.641448975E0,-1.495572925E-1,8.460857729E0
9.434521530E-1,6.312427521E0,-5.788282394E0,8.568974733E-1,8.607277593E0
9.484568920E-1,6.552738190E0,-5.721682549E0,1.762799978E0,8.876006576E0
9.534616320E-1,6.941663265E0,-5.486703873E0,2.721825838E0,9.257372422E0
9.584663710E-1,7.400534630E0,-5.070951462E0,3.700009584E0,9.704253318E0
9.634711110E-1,8.016864777E0,-4.457188606E0,4.852727890E0,1.037716816E1
9.684758500E-1,8.852678299E0,-3.756687164E0,6.019373894E0,1.134528420E1
9.734805900E-1,9.697669029E0,-2.941632271E0,6.950392723E0,1.228844758E1
9.784853300E-1,1.039507866E1,-2.103141785E0,7.503797531E0,1.299183756E1
9.834900690E-1,1.091858196E1,-1.088645935E0,7.878701687E0,1.350831308E1
9.884948090E-1,1.138066864E1,1.107025146E-1,8.078815460E0,1.395704600E1
9.934995480E-1,1.169319344E1,1.422445297E0,8.093852043E0,1.429211546E1
9.985042880E-1,1.155879307E1,2.583545685E0,7.600277424E0,1.407283278E1
1.003509028E0,1.098798084E1,3.256007671E0,6.492376328E0,1.317149420E1
1.008513767E0,1.027456665E1,3.894604206E0,5.171448708E0,1.214407442E1
1.013518507E0,9.719911575E0,4.861001492E0,3.761644363E0,1.150026021E1
1.018523246E0,9.161724091E0,5.695636749E0,2.326267958E0,1.103580486E1
1.023527986E0,8.457998276E0,6.141658306E0,8.960757852E-1,1.049097962E1
1.028532725E0,7.496817112E0,6.163213253E0,-6.453912258E-1,9.726458464E0
1.033537465E0,6.448822021E0,5.777724266E0,-2.180422783E0,8.928809925E0
1.038542205E0,5.312901497E0,5.112707138E0,-3.530637026E0,8.175089871E0
1.043546944E0,3.970230341E0,4.443464279E0,-4.500699520E0,7.467489533E0
1.048551684E0,2.574894428E0,3.853632450E0,-5.089159012E0,6.883320698E0
1.053556423E0,1.432274580E0,3.416755199E0,-5.234222889E0,6.412699573E0
1.058561163E0,6.256957054E-1,3.176750183E0,-5.081220150E0,6.025117016E0
1.063565903E0,1.457982063E-1,3.014575958E0,-4.894340515E0,5.750086469E0
1.068570642E0,-2.683949471E-2,3.025824547E0,-4.407891750E0,5.346573130E0
1.073575382E0,-7.841420174E-2,3.362625599E0,-3.638797760E0,4.955224399E0
1.078580121E0,-6.219220161E-2,3.951666832E0,-3.105232239E0,5.026132298E0
1.083584861E0,-1.529769897E-1,4.456679821E0,-2.933228970E0,5.337530250E0
1.088589600E0,-3.481993675E-1,4.747859955E0,-2.810165167E0,5.528150253E0
1.093594340E0,-4.865038395E-1,4.906351089E0,-2.648041010E0,5.596524653E0
1.098599080E0,-4.551343918E-1,4.946320534E0,-2.143455744E0,5.409957178E0
1.103603819E0,-4.569678307E-1,4.943664551E0,-1.366085052E0,5.149255010E0
1.108608559E0,-3.356659412E-1,4.783504486E0,-5.623037815E-1,4.828123065E0
1.113613350E0,-1.117980480E-1,4.585180759E0,1.136125326E-1,4.587950436E0
1.118618142E0,1.759872437E-1,4.458355427E0,6.372817755E-1,4.507109127E0
1.123622934E0,4.129765034E-1,4.412115574E0,1.079710722E0,4.561040306E0
1.128627725E0,5.326066017E-1,4.407853603E0,1.411601305E0,4.658912043E0
1.133632517E0,5.495710373E-1,4.373763561E0,1.622972846E0,4.697433009E0
1.138637309E0,5.737016201E-1,4.286011219E0,1.685106277E0,4.640970683E0
1.143642100E0,6.670196056E-1,4.206823826E0,1.698477745E0,4.585532522E0
1.148646892E0,7.387504578E-1,4.055158138E0,1.663216591E0,4.444811491E0
1.153651684E0,7.850360870E-1,3.922182083E0,1.688962460E0,4.341933687E0
1.158656475E0,6.591734886E-1,3.746198654E0,1.613429546E0,4.131787621E0
1.163661267E0,3.393487930E-1,3.532604218E0,1.312837601E0,3.783912357E0
1.168666059E0,1.179363728E-1,3.410548210E0,8.835256696E-1,3.525105061E0
1.173670850E0,3.724527359E-2,3.322404385E0,4.267633557E-1,3.349908218E0
1.178675642E0,-8.477067947E-2,3.201303959E0,-1.179546714E-1,3.204597699E0
1.183680434E0,-2.331938744E-1,3.023876667E0,-6.390111446E-1,3.099442647E0
1.188685225E0,-3.980371952E-1,2.733450890E0,-1.215963840E0,3.018071476E0
1.193690017E0,-5.311539173E-1,2.488159180E0,-1.480140567E0,2.943446396E0
1.198694809E0,-5.840713978E-1,2.412243843E0,-1.532227397E0,2.916809996E0
1.203699600E0,-5.804462433E-1,2.543400764E0,-1.477571011E0,2.998169672E0
1.208704392E0,-5.637686253E-1,2.632768631E0,-1.606837273E0,3.135479508E0
1.213709184E0,-3.959829807E-1,2.632855415E0,-1.656377316E0,3.135652400E0
1.218713975E0,-7.322716713E-2,2.582112312E0,-1.621428251E0,3.049868159E0
1.223718767E0,2.364962101E-1,2.547339439E0,-1.559409261E0,2.996101787E0
1.228723559E0,5.279750824E-1,2.571138382E0,-1.380193472E0,2.965542832E0
1.233728350E0,8.340032101E-1,2.609942436E0,-1.209423542E0,2.995006875E0
1.238733142E0,1.253932953E0,2.582155228E0,-1.058084011E0,3.059316140E0
1.243737934E0,1.776997328E0,2.473259926E0,-9.705274105E-1,3.196350672E0
1.248742725E0,2.354388475E0,2.316639900E0,-9.851295352E-1,3.446802246E0
1.253747517E0,2.847061872E0,2.055078030E0,-9.295754433E-1,3.632246897E0
1.258752309E0,3.074415445E0,1.689135551E0,-8.372083902E-1,3.606400855E0
1.263757100E0,3.185769796E0,1.386417389E0,-6.260609031E-1,3.530330668E0
1.268761892E0,3.338573933E0,1.165691853E0,-3.815774918E-1,3.556756216E0
1.273766684E0,3.536639929E0,1.031152248E0,-1.272565126E-1,3.686094297E0
1.278771475E0,3.760061502E0,8.485722542E-1,9.799528122E-2,3.855870907E0
1.283776267E0,3.922504902E0,5.796957016E-1,2.597931623E-1,3.973610990E0
1.288781059E0,3.980599642E0,4.009542465E-1,3.957388401E-1,4.020267037E0
1.293785850E0,3.905434847E0,3.164119720E-1,5.626565218E-1,3.958423959E0
1.298790642E0,3.768287659E0,2.204246521E-1,6.793109179E-1,3.835367287E0
1.303795434E0,3.640254021E0,5.081653595E-2,5.749788284E-1,3.685733619E0
1.308800225E0,3.534980059E0,-1.303157806E-1,3.658516407E-1,3.556249941E0
1.313805017E0,3.432655096E0,-3.469495773E-1,1.203366518E-1,3.452242159E0
1.318809809E0,3.380815029E0,-6.180744171E-1,-5.564820766E-2,3.437298790E0
1.323814600E0,3.370028734E0,-9.625015259E-1,-7.135927677E-2,3.505509236E0
1.328819392E0,3.386861324E0,-1.417918205E0,6.702160835E-2,3.672303577E0
1.333824184E0,3.432910442E0,-1.907116890E0,1.336990595E-1,3.929356738E0
1.338828975E0,3.409515381E0,-2.262495995E0,1.425758600E-1,4.094387761E0
1.343833767E0,3.403762817E0,-2.431762695E0,1.508523226E-1,4.185908210E0
1.348838559E0,3.382858038E0,-2.529897690E0,7.708549500E-2,4.224932307E0
1.353843350E0,3.270740509E0,-2.628709793E0,5.000567436E-2,4.196469852E0
1.358848142E0,3.144134998E0,-2.780664444E0,7.434248924E-3,4.197348557E0
1.363852934E0,3.003365517E0,-3.033173561E0,-5.065107346E-2,4.268830262E0
1.368857725E0,2.844285965E0,-3.433344841E0,-1.578439474E-1,4.461248050E0
1.373862517E0,2.692072392E0,-3.951437950E0,-2.189301252E-1,4.786339524E0
