"Time (s)","Linear Acceleration x (m/s^2)","Linear Acceleration y (m/s^2)","Linear Acceleration z (m/s^2)","Absolute acceleration (m/s^2)"
2.107657000E-2,0.000000000E0,0.000000000E0,0.000000000E0,0.000000000E0
2.607672600E-2,3.207969666E-2,1.068120003E-1,-5.595207214E-2,1.247739745E-1
3.107724700E-2,5.627679825E-2,3.340430260E-1,-1.427469254E-1,3.675982942E-1
3.607828900E-2,9.017705917E-2,5.205674171E-1,-2.283592224E-1,5.755608328E-1
4.108000700E-2,1.784887314E-1,6.473207474E-1,-3.190002441E-1,7.433999818E-1
4.608250700E-2,1.737680435E-1,8.051242828E-1,-3.950500488E-1,9.135014969E-1
5.108584100E-2,8.640050888E-2,9.245495796E-1,-4.751815796E-1,1.043098512E0
5.609005900E-2,1.676692963E-1,9.255042076E-1,-5.682525635E-1,1.098900363E0
6.109516400E-2,3.272686005E-1,8.553142548E-1,-6.357460022E-1,1.114827426E0
6.610110100E-2,5.131554604E-1,7.076010704E-1,-4.468994141E-1,9.817061106E-1
7.110782000E-2,7.239630222E-1,5.625205040E-1,-4.563331604E-3,9.168274641E-1
7.611521600E-2,1.011991739E0,3.675942421E-1,5.229072571E-1,1.196948122E0
8.112318400E-2,1.324057341E0,1.185173988E-1,8.864459991E-1,1.597798712E0
8.613157000E-2,1.631640673E0,-1.447572708E-1,1.165156364E0,2.010172954E0
9.114021600E-2,1.906700611E0,-3.801722527E-1,1.510697365E0,2.462162604E0
9.614901800E-2,2.127864361E0,-6.193766594E-1,1.989738464E0,2.978337345E0
1.011578200E-1,2.280111074E0,-8.420939445E-1,2.395828247E0,3.412919822E0
1.061629240E-1,2.284116268E0,-1.142110109E0,2.640632629E0,3.673491978E0
1.111680280E-1,2.120614767E0,-1.413879156E0,2.665147781E0,3.687692226E0
1.161730800E-1,1.860704899E0,-1.687968969E0,2.492827415E0,3.539159573E0
1.211781320E-1,1.511163712E0,-1.910881996E0,2.176204681E0,3.266642402E0
1.261831840E-1,1.137107134E0,-2.067391157E0,1.769221306E0,2.949112216E0
1.311882360E-1,7.411394119E-1,-2.179138660E0,1.355408669E0,2.671154355E0
1.361932890E-1,3.765470982E-1,-2.238662720E0,9.462862015E-1,2.459442226E0
1.411983410E-1,9.856534004E-2,-2.242750168E0,5.668153763E-1,2.315366734E0
1.462033930E-1,-6.658482552E-2,-2.220014334E0,2.137727737E-1,2.231276760E0
1.512084450E-1,-1.391708851E-1,-2.206938744E0,-1.341075897E-1,2.215385294E0
1.562134970E-1,-1.565794945E-1,-2.210963249E0,-4.555749893E-1,2.262835433E0
1.612185490E-1,-1.785871983E-1,-2.234624624E0,-7.947721481E-1,2.378466600E0
1.662236010E-1,-2.307348251E-1,-2.266458511E0,-1.083292961E0,2.522616971E0
1.712286530E-1,-3.090872765E-1,-2.304800510E0,-1.328595161E0,2.678209372E0
1.762337050E-1,-4.002976418E-1,-2.335040092E0,-1.504898071E0,2.806665039E0
1.812387570E-1,-5.567276478E-1,-2.296721458E0,-1.614804268E0,2.862248758E0
1.862438090E-1,-7.690751553E-1,-2.210253716E0,-1.632684708E0,2.853481634E0
1.912488610E-1,-9.814391136E-1,-2.119013548E0,-1.584358215E0,2.821990805E0
1.962539140E-1,-1.133728862E0,-2.074492693E0,-1.550431252E0,2.827136030E0
2.012589660E-1,-1.171046853E0,-2.127466440E0,-1.501914024E0,2.855382623E0
2.062640180E-1,-1.052550316E0,-2.314700365E0,-1.405445099E0,2.905335759E0
2.112690700E-1,-8.361496925E-1,-2.513940573E0,-1.284397125E0,2.944268922E0
2.162741220E-1,-5.313388109E-1,-2.745501518E0,-1.161702156E0,3.028143229E0
2.212791740E-1,-1.659669876E-1,-2.963792086E0,-1.092537880E0,3.163107268E0
2.262842260E-1,2.243567705E-1,-3.063199043E0,-1.046776772E0,3.244883041E0
2.312892780E-1,5.923337340E-1,-3.089679956E0,-1.027766228E0,3.309574732E0
2.362943300E-1,1.012579441E0,-3.092611551E0,-1.034425735E0,3.414615635E0
2.412993820E-1,1.373396635E0,-3.082783699E0,-1.080145836E0,3.543513606E0
2.463044340E-1,1.671785593E0,-3.004179478E0,-1.140964508E0,3.622397191E0
2.513094860E-1,1.899647951E0,-2.815459490E0,-1.207592964E0,3.604685180E0
2.563145390E-1,2.071763515E0,-2.550704002E0,-1.313197136E0,3.538754257E0
2.613195910E-1,2.141790867E0,-2.153487921E0,-1.358978271E0,3.327401431E0
2.663246430E-1,2.140553713E0,-1.746814609E0,-1.430850029E0,3.111376428E0
2.713296950E-1,2.121528387E0,-1.362360477E0,-1.556678772E0,2.963133066E0
2.763347470E-1,2.112270355E0,-1.003047705E0,-1.731069565E0,2.909362918E0
2.813397990E-1,2.087277412E0,-6.573202610E-1,-1.972362518E0,2.946016094E0
2.863448510E-1,2.016634941E0,-3.281110525E-1,-2.209303856E0,3.009235264E0
2.913499030E-1,1.867368460E0,-4.640340805E-2,-2.432978630E0,3.067344659E0
2.963549550E-1,1.673502207E0,1.903034449E-1,-2.667510986E0,3.154748785E0
3.013600070E-1,1.421397924E0,3.469754457E-1,-2.941365719E0,3.285178277E0
3.063650590E-1,1.129958630E0,3.747756481E-1,-3.273169518E0,3.482944441E0
3.113701110E-1,8.303702474E-1,1.977739334E-1,-3.629718304E0,3.728737620E0
3.163751640E-1,5.386429429E-1,-8.953356743E-2,-3.907789707E0,3.945753778E0
3.213802160E-1,3.145931363E-1,-4.276647568E-1,-4.062108994E0,4.096656620E0
3.263852680E-1,7.726466656E-2,-7.068639994E-1,-4.132575035E0,4.193304540E0
3.313903200E-1,-2.055250406E-1,-9.375963211E-1,-4.148736954E0,4.258326633E0
3.363953720E-1,-5.098948479E-1,-1.078857899E0,-4.073569298E0,4.244748985E0
3.414004760E-1,-8.272763491E-1,-1.175330400E0,-3.945972443E0,4.199581673E0
3.464055800E-1,-1.107900739E0,-1.238352537E0,-3.808962822E0,4.155617744E0
3.514106840E-1,-1.293169737E0,-1.288932800E0,-3.652958870E0,4.083839399E0
3.564157890E-1,-1.413957596E0,-1.295476913E0,-3.454349995E0,3.950958162E0
3.614208930E-1,-1.452093363E0,-1.231752157E0,-3.208567142E0,3.731044307E0
3.664259970E-1,-1.417535543E0,-1.118666410E0,-2.991357327E0,3.494143702E0
3.714311010E-1,-1.291243434E0,-1.038093328E0,-2.754655838E0,3.214510250E0
3.764362050E-1,-1.148555756E0,-9.007813931E-1,-2.507710457E0,2.901585632E0
3.814413090E-1,-1.063598633E0,-6.895043850E-1,-2.264381886E0,2.595011305E0
3.864464140E-1,-1.061177254E0,-3.399919868E-1,-2.071362972E0,2.352070636E0
3.914515180E-1,-9.537411928E-1,5.576217175E-2,-1.804844856E0,2.042105932E0
3.964566220E-1,-8.600425124E-1,4.490227699E-1,-1.541188240E0,1.821141335E0
4.014617260E-1,-7.793461084E-1,8.015673757E-1,-1.266062737E0,1.689025005E0
4.064668300E-1,-7.447052002E-1,1.085205078E0,-1.022116661E0,1.666426826E0
4.114719340E-1,-7.352793217E-1,1.362030506E0,-7.520895004E-1,1.720872278E0
4.164770390E-1,-6.881072521E-1,1.536948442E0,-4.608860016E-1,1.745886025E0
4.214821430E-1,-6.888160706E-1,1.676556349E0,-1.912546158E-1,1.822604482E0
4.264872470E-1,-7.003658414E-1,1.804121971E0,9.014129639E-2,1.937393572E0
4.314923510E-1,-7.156023383E-1,1.852675080E0,2.411394119E-1,2.000659860E0
4.364974550E-1,-7.366411686E-1,1.728194952E0,2.158365250E-1,1.891000637E0
4.415025590E-1,-9.388501048E-1,1.504176617E0,-2.165031433E-2,1.773261275E0
4.465076640E-1,-1.115420938E0,1.145916700E0,-3.175544739E-1,1.630377194E0
4.515127680E-1,-1.209971428E0,7.423326969E-1,-6.288690567E-1,1.552599427E0
4.565178720E-1,-1.238252282E0,2.581397891E-1,-8.373575211E-1,1.516928635E0
4.615229760E-1,-1.216870666E0,-1.949808598E-1,-1.015501976E0,1.596883219E0
4.665280800E-1,-6.839957237E-1,-4.068114460E-1,-1.220757484E0,1.457255825E0
4.715331840E-1,-4.550805688E-1,-4.967893660E-1,-1.287495613E0,1.453114914E0
4.765382890E-1,-6.382319331E-1,-7.252487540E-1,-1.160502434E0,1.509997237E0
4.815433930E-1,-8.685832620E-1,-1.003988981E0,-9.411201477E-1,1.627310017E0
4.865484970E-1,-1.077327967E0,-1.122743249E0,-6.583442688E-1,1.689557672E0
4.915536010E-1,-1.185800433E0,-1.016472340E0,-3.975715637E-1,1.611645691E0
4.965587050E-1,-1.106979489E0,-7.684465647E-1,-1.675195694E-1,1.357930970E0
5.015638090E-1,-1.015776157E0,-4.380574226E-1,8.473110199E-2,1.109448001E0
5.065689140E-1,-9.768712521E-1,-1.083873361E-1,4.825601578E-1,1.094938155E0
5.115740180E-1,-1.086932182E0,2.657183707E-1,9.584436417E-1,1.473309891E0
5.165791220E-1,-1.175640106E0,6.149003506E-1,1.540212631E0,2.032851950E0
5.215842260E-1,-1.268716335E0,1.017719030E0,2.037207603E0,2.606838695E0
5.265893300E-1,-1.296559572E0,1.371997237E0,2.483334541E0,3.119357881E0
5.315944340E-1,-1.263089538E0,1.690491199E0,2.850425720E0,3.546559243E0
5.365995390E-1,-1.206265092E0,1.882135630E0,3.366660118E0,4.041275832E0
5.416046430E-1,-1.028137326E0,1.927563071E0,3.902381897E0,4.472264552E0
5.466097470E-1,-8.456953764E-1,1.892922640E0,4.300735474E0,4.774377698E0
5.516148510E-1,-6.367571354E-1,1.815396190E0,4.458488464E0,4.855846205E0
5.566199550E-1,-2.850368619E-1,1.656258583E0,4.372954369E0,4.684780509E0
5.616250590E-1,-4.028685391E-2,1.430179954E0,4.055706978E0,4.300673996E0
5.666301640E-1,3.198490143E-1,1.209113955E0,3.594126701E0,3.805523183E0
5.716352680E-1,7.304937840E-1,1.002949715E0,2.941926956E0,3.192876996E0
5.766403720E-1,9.962445498E-1,7.697734237E-1,2.219360352E0,2.551590621E0
5.816454760E-1,1.152438283E0,4.969538748E-1,1.583652496E0,2.020651474E0
5.866505800E-1,1.296949625E0,2.618240118E-1,1.129017830E0,1.739342233E0
5.916556840E-1,1.546559453E0,-1.064515114E-2,8.302946091E-1,1.755377053E0
5.966607890E-1,1.664546490E0,-3.663029671E-1,6.388454437E-1,1.820169328E0
6.016658930E-1,1.885566354E0,-7.269359827E-1,5.919504166E-1,2.105754424E0
6.066709970E-1,2.147015095E0,-9.768243432E-1,7.028570175E-1,2.461273573E0
6.116761010E-1,2.446486712E0,-1.030547142E0,1.202998161E0,2.914537565E0
6.166812050E-1,2.500477791E0,-1.008895636E0,1.656994820E0,3.164789317E0
6.216863090E-1,2.449750185E0,-8.647246361E-1,1.790019035E0,3.154868113E0
6.266913610E-1,2.198222160E0,-7.461187840E-1,1.804509163E0,2.940259721E0
6.316964140E-1,1.767554402E0,-5.534678698E-1,1.711211205E0,2.521669890E0
6.367014660E-1,1.319787264E0,-2.893165946E-1,1.691159248E0,2.164615928E0
6.417065180E-1,7.438829541E-1,-4.264175892E-3,1.529399872E0,1.700718672E0
6.467115700E-1,2.176497579E-1,1.764114201E-1,1.378600121E0,1.406780260E0
6.517166220E-1,-2.369278669E-1,2.906258702E-1,1.224158287E0,1.280297513E0
6.567216740E-1,-6.013624668E-1,3.244397640E-1,1.066025734E0,1.266218323E0
6.617267260E-1,-8.570199013E-1,3.495584726E-1,8.091974258E-1,1.229420478E0
6.667317780E-1,-1.084465265E0,3.518990874E-1,5.876083374E-1,1.282646264E0
6.717368300E-1,-1.325396061E0,2.138508260E-1,4.154682159E-1,1.405354309E0
6.767418820E-1,-1.560178399E0,8.532003313E-2,3.305463791E-1,1.597090183E0
6.817469340E-1,-1.797827721E0,-1.508756578E-1,2.657651901E-1,1.823617041E0
6.867519860E-1,-1.808790207E0,-3.018870354E-1,1.206207275E-2,1.833849309E0
6.917570390E-1,-1.820805192E0,-2.332955897E-1,-2.292852402E-1,1.849954081E0
6.967620910E-1,-1.909844398E0,1.270961761E-1,-4.576482773E-1,1.968019565E0
7.017671430E-1,-1.947944045E0,7.886325717E-1,-1.034647942E0,2.342418344E0
7.067721950E-1,-1.882915974E0,1.415870905E0,-2.002339363E0,3.091832128E0
7.117772470E-1,-1.737453222E0,1.942174911E0,-2.766341209E0,3.800451391E0
7.167822990E-1,-1.646055222E0,1.722530842E0,-3.310607433E0,4.078815008E0
7.217873510E-1,-1.461408854E0,1.440443993E0,-3.712986946E0,4.242271419E0
7.267924030E-1,-1.284037471E0,9.525799751E-1,-3.711978912E0,4.041651677E0
7.317974550E-1,-1.368437648E0,-1.014941931E0,1.310001373E0,2.149146881E0
7.368025070E-1,-1.280875087E0,-1.832424521E0,2.491964340E0,3.347880955E0
7.418075590E-1,-2.692812681E-1,-2.040133953E0,5.736188889E-1,2.136281250E0
7.468126110E-1,4.521559477E-1,-2.097006083E0,3.559724808E0,4.156142468E0
7.518176640E-1,4.543402195E-1,-2.170453072E0,5.047515869E0,5.513139579E0
7.568227160E-1,4.037648439E-1,-2.220542908E0,5.656776428E0,6.090398707E0
7.618277680E-1,4.658640623E-1,-2.238767862E0,5.407700539E0,5.871314672E0
7.668328200E-1,8.834108710E-1,-2.357982635E0,4.500213623E0,5.156783836E0
7.718378720E-1,1.465905428E0,-2.486325264E0,3.293803215E0,4.379478469E0
7.768429240E-1,1.484588861E0,-2.419989824E0,2.222351074E0,3.605440214E0
7.818479760E-1,1.463689566E0,-2.060445786E0,1.314385414E0,2.848759905E0
7.868530280E-1,1.166141748E0,-1.602127433E0,4.557752609E-1,2.033329776E0
7.918580800E-1,8.741921782E-1,-1.218513727E0,-3.963642120E-1,1.551158360E0
7.968631320E-1,3.193055391E-1,-8.728484511E-1,-1.180973053E0,1.502836584E0
8.018681840E-1,-2.676421404E-1,-5.964125991E-1,-1.813775063E0,1.927983475E0
8.068732360E-1,-5.546274185E-1,-5.830399394E-1,-2.296187878E0,2.433110337E0
8.118782890E-1,-5.706503391E-1,-8.205775023E-1,-2.500806332E0,2.693143434E0
8.168833410E-1,-3.586618900E-1,-1.158982038E0,-2.458105564E0,2.741196943E0
8.218883930E-1,6.351613998E-2,-1.610272646E0,-2.488582134E0,2.964802410E0
8.268934450E-1,5.364813805E-1,-1.999396324E0,-2.715645790E0,3.414693250E0
8.318984970E-1,8.978821039E-1,-2.212676287E0,-2.905044556E0,3.760506946E0
8.369036010E-1,1.092435002E0,-2.226981640E0,-2.890299797E0,3.808765466E0
8.419087050E-1,1.276489615E0,-2.109683752E0,-2.705379486E0,3.660501255E0
8.469138090E-1,1.507214308E0,-1.970776081E0,-2.551162720E0,3.558663310E0
8.519189140E-1,1.607628822E0,-1.933575869E0,-2.475122929E0,3.528373504E0
8.569240180E-1,1.541141987E0,-2.045141697E0,-2.519325256E0,3.592314425E0
8.619291220E-1,1.473080635E0,-2.279854059E0,-2.720645905E0,3.843125710E0
8.669342260E-1,1.496045232E0,-2.354728222E0,-2.773201942E0,3.933642758E0
8.719393300E-1,1.517045021E0,-2.350648880E0,-2.758369446E0,3.928813784E0
8.769444340E-1,1.532551289E0,-2.281015158E0,-2.933553696E0,4.019636910E0
8.819495390E-1,1.462012529E0,-2.168253899E0,-3.202640057E0,4.134695749E0
8.869546430E-1,1.234512329E0,-1.996589661E0,-3.522516251E0,4.233026305E0
8.919597470E-1,1.150657535E0,-1.688638687E0,-3.826537132E0,4.337960327E0
8.969648510E-1,1.050890326E0,-1.339245200E0,-4.034265995E0,4.378727019E0
9.019699550E-1,7.534779310E-1,-9.765524864E-1,-4.151203632E0,4.330574483E0
9.069750590E-1,2.973123789E-1,-6.340178251E-1,-4.273080349E0,4.330079551E0
9.119801640E-1,-4.244196415E-1,-3.024930954E-1,-4.390035629E0,4.420864953E0
9.169852680E-1,-1.204439998E0,8.103966713E-3,-4.578112602E0,4.733904982E0
9.219903720E-1,-1.994040132E0,2.836483717E-1,-4.660694122E0,5.077275071E0
9.269954760E-1,-2.283209324E0,3.100270033E-1,-4.614550591E0,5.157832753E0
9.320005800E-1,-1.993636370E0,-1.596927643E-2,-4.468996048E0,4.893543365E0
9.370056840E-1,-1.324012399E0,-5.397495627E-1,-4.200800419E0,4.437461277E0
9.420107890E-1,-6.721915007E-1,-1.089170694E0,-3.867692471E0,4.073963581E0
9.470158930E-1,-2.194259167E-1,-1.460484147E0,-3.484067917E0,3.784163174E0
9.520209970E-1,9.485426545E-2,-1.779607058E0,-2.444955826E0,3.025526004E0
9.570261010E-1,5.245516300E-1,-2.376974106E0,-3.437604904E-1,2.458318854E0
9.620312050E-1,3.977084458E-1,-2.575329304E0,-1.077806473E0,2.819957415E0
9.670363090E-1,-1.144061685E-1,-2.661633968E0,-1.455225945E0,3.035632834E0
9.720414140E-1,-1.715474129E-1,-2.511190414E0,-1.205605507E0,2.790876287E0
9.770465180E-1,3.717362881E-3,-2.542641640E0,-9.415349960E-1,2.711370221E0
9.820516220E-1,1.139891148E-2,-2.680439711E0,-5.534076691E-1,2.736995986E0
9.870567260E-1,-4.068146944E-1,-2.400262356E0,-5.707664490E-1,2.500506331E0
9.920618300E-1,-8.060516119E-1,-1.975550532E0,-8.060226440E-1,2.280831342E0
9.970669340E-1,-9.848081470E-1,-1.562921524E0,-1.191658974E0,2.198322516E0
1.002072039E0,-9.156662822E-1,-1.217266440E0,-1.679502487E0,2.267357698E0
1.007077143E0,-2.574290633E-1,-1.054286122E0,-2.121674061E0,2.383126050E0
1.012082247E0,9.202392399E-2,-1.013129115E0,-2.194668293E0,2.418980761E0
1.017087351E0,1.648720503E-1,-1.139975429E0,-2.219535828E0,2.500613137E0
1.022092455E0,1.154752076E-2,-1.123559594E0,-2.325175285E0,2.582432887E0
1.027097559E0,-1.556247324E-1,-8.448337913E-1,-2.468338013E0,2.613552321E0
1.032102664E0,-4.923512936E-1,-3.615040183E-1,-2.620325089E0,2.690575872E0
1.037107768E0,-8.012233377E-1,2.878012657E-1,-2.781160831E0,2.908546712E0
1.042112872E0,-1.115179658E0,1.069092989E0,-2.960381031E0,3.339227656E0
1.047117976E0,-1.531562924E0,1.996457815E0,-3.243780136E0,4.105318303E0
1.052123080E0,-2.028445959E0,2.878449440E0,-3.116230965E0,4.702229217E0
1.057128184E0,-2.376704454E0,3.604097843E0,-2.531826019E0,5.004836493E0
1.062133289E0,-1.990490079E0,3.925433159E0,-2.331304550E0,4.980567954E0
1.067138393E0,-1.040942907E0,3.573422909E0,-2.217438698E0,4.332429780E0
1.072143497E0,-4.125187397E-1,2.924397469E0,-2.047030449E0,3.593411460E0
1.077148601E0,4.981814325E-2,2.333701134E0,-1.844362736E0,2.974948189E0
1.082153705E0,4.642839432E-1,1.987833381E0,-1.657417774E0,2.629462836E0
1.087158809E0,9.213646054E-1,1.781653047E0,-1.610261917E0,2.572186571E0
1.092163914E0,1.585107088E0,1.587598443E0,-1.745527744E0,2.842516562E0
1.097169018E0,1.135526538E0,1.549518824E0,-1.524025917E0,2.452159069E0
1.102174122E0,6.399250031E-1,1.557278991E0,-1.528942108E0,2.274265999E0
1.107179226E0,1.417835951E-1,1.529524684E0,-1.320696831E0,2.025780952E0
1.112184330E0,-1.542033255E-2,1.403894901E0,-1.224225044E0,1.862762905E0
1.117189434E0,2.756811678E-2,1.127927423E0,-1.071985245E0,1.556320223E0
1.122194539E0,-7.066435367E-2,8.253920078E-1,-8.401021957E-1,1.179846226E0
1.127199643E0,-3.500919044E-1,6.094379425E-1,-5.524034500E-1,8.939398855E-1
1.132204747E0,-7.306495309E-1,5.824536085E-1,-2.754545212E-1,9.741540619E-1
1.137209851E0,-9.520731568E-1,7.124770880E-1,-1.184368134E-1,1.195028943E0
1.142214955E0,-1.199188232E0,9.061635733E-1,2.429866791E-2,1.503254890E0
1.147220059E0,-1.345891356E0,1.170941710E0,2.101497650E-1,1.796299239E0
1.152225164E0,-1.612291098E0,1.456944823E0,6.154346466E-1,2.258523988E0
1.157230216E0,-1.707685351E0,1.619176984E0,8.197727203E-1,2.491977263E0
1.162235268E0,-1.378131866E0,1.691021442E0,8.430089951E-1,2.338688762E0
1.167240320E0,-8.705686331E-1,1.859031081E0,8.431024551E-1,2.219168325E0
1.172245372E0,-4.149009585E-1,2.185436487E0,9.535360336E-1,2.420228587E0
1.177250424E0,-3.294740617E-2,2.489572525E0,1.169007301E0,2.750569934E0
1.182255476E0,2.298202813E-1,2.582311392E0,1.264922142E0,2.884645127E0
1.187260528E0,3.369765282E-1,2.499853611E0,1.246439934E0,2.813615781E0
1.192265580E0,4.146867096E-1,2.440587044E0,1.371348381E0,2.830022362E0
1.197270632E0,4.417258501E-1,2.458292007E0,1.891651154E0,3.133155822E0
1.202275684E0,4.685155451E-1,2.390775204E0,2.533914566E0,3.515115349E0
1.207280736E0,4.776111841E-1,2.199872494E0,2.920997620E0,3.687787755E0
1.212285789E0,4.366187453E-1,1.848144889E0,3.134985924E0,3.665298378E0
1.217290841E0,2.512160540E-1,1.509210587E0,3.243136406E0,3.585911299E0
1.222295893E0,-6.056398153E-3,1.341629982E0,3.407783508E0,3.662375749E0
1.227300945E0,-1.914472878E-1,1.273906231E0,3.518855095E0,3.747243030E0
1.232305997E0,-2.719166279E-1,1.258214712E0,3.605099678E0,3.828026463E0
1.237311049E0,-2.628204823E-1,1.256245971E0,3.661825180E0,3.880230946E0
1.242316101E0,-1.701375693E-1,1.243888140E0,3.693952560E0,3.901472801E0
1.247321153E0,-1.187320501E-1,1.225528955E0,3.692113876E0,3.892007631E0
1.252326205E0,-1.904793084E-1,1.219591856E0,3.661336899E0,3.863816060E0
1.257331257E0,-3.285298944E-1,1.205915809E0,3.687757492E0,3.893805356E0
1.262336309E0,-3.662543595E-1,1.268926978E0,3.795213699E0,4.018453055E0
1.267341361E0,-1.900157332E-1,1.430014610E0,3.978930473E0,4.232367597E0
1.272346414E0,1.374766827E-1,1.624765635E0,4.091032982E0,4.404011134E0
1.277351466E0,4.003374875E-1,1.708551049E0,3.955555916E0,4.327336293E0
1.282356518E0,5.500872731E-1,1.672158360E0,3.592611313E0,4.000695644E0
1.287361570E0,6.049652100E-1,1.607359409E0,3.117530823E0,3.559295662E0
1.292366622E0,6.071149707E-1,1.534675121E0,2.592648506E0,3.073376416E0
1.297371674E0,4.843898118E-1,1.470011234E0,2.161099434E0,2.658179317E0
1.302376726E0,2.516390979E-1,1.395852089E0,1.946357727E0,2.408325911E0
1.307381778E0,2.471780777E-2,1.284722924E0,1.890188217E0,2.285593021E0
1.312386830E0,-1.046037674E-1,1.084834099E0,1.891714096E0,2.183206172E0
1.317391882E0,-1.066704988E-1,8.356168270E-1,1.940984726E0,2.115905429E0
1.322396934E0,3.460675478E-2,6.096266508E-1,2.152042389E0,2.236990998E0
1.327401986E0,2.690765262E-1,3.259786367E-1,2.409530640E0,2.446324212E0
1.332407039E0,5.127826929E-1,1.852357388E-2,2.622389793E0,2.672118531E0
1.337412091E0,8.053883314E-1,-2.174894810E-1,2.738170624E0,2.862434349E0
1.342417143E0,1.137702346E0,-3.447456360E-1,2.766762733E0,3.011343920E0
1.347422247E0,1.404084802E0,-4.026427269E-1,2.746772766E0,3.111002399E0
1.352427351E0,1.608781576E0,-4.784069657E-1,2.735817909E0,3.209634094E0
1.357432455E0,1.765405297E0,-6.445071697E-1,2.667274475E0,3.262881929E0
1.362437559E0,1.849310875E0,-9.157238603E-1,2.541538239E0,3.273823074E0
1.367442664E0,1.798280001E0,-1.239843965E0,2.420954704E0,3.260681784E0
