"Time (s)","Linear Acceleration x (m/s^2)","Linear Acceleration y (m/s^2)","Linear Acceleration z (m/s^2)","Absolute acceleration (m/s^2)"
2.486231000E-2,0.000000000E0,0.000000000E0,0.000000000E0,0.000000000E0
2.986246600E-2,1.367530823E-1,3.759050369E-2,3.422307968E-2,1.458960954E-1
3.486293500E-2,2.896695137E-1,9.381413460E-2,2.833485603E-1,4.159277890E-1
3.986387200E-2,3.976428509E-1,1.730852127E-1,7.450695038E-1,8.620944804E-1
4.486538300E-2,5.469336510E-1,3.072948456E-1,1.444499016E0,1.574847277E0
4.986757000E-2,7.876591682E-1,5.161147118E-1,2.437929153E0,2.613480422E0
5.487048700E-2,1.372040033E0,4.277014732E-1,3.078095913E0,3.397071806E0
5.987418500E-2,2.049857855E0,7.304573059E-2,3.403928280E0,3.974164143E0
6.487866400E-2,2.468174458E0,-3.765516281E-1,3.619108200E0,4.396773868E0
6.988387200E-2,2.607609034E0,-8.698633909E-1,3.724380493E0,4.628962870E0
7.488975800E-2,2.541749001E0,-1.379556060E0,3.587906837E0,4.608333579E0
7.989626800E-2,2.363721132E0,-1.672184944E0,3.290458679E0,4.382978257E0
8.490330000E-2,2.128720522E0,-2.038713455E0,2.820750237E0,4.079759247E0
8.991069500E-2,1.902288437E0,-2.430209637E0,2.167156219E0,3.771098813E0
9.491835200E-2,1.620398998E0,-2.455809593E0,1.420803070E0,3.267319243E0
9.992611200E-2,1.284365892E0,-2.465352058E0,6.007795334E-1,2.844027525E0
1.049337160E-1,7.259702086E-1,-2.557450771E0,-3.054494858E-1,2.675983292E0
1.099381430E-1,1.463612318E-1,-2.672013521E0,-1.300101280E0,2.975120368E0
1.149425700E-1,-4.287850857E-1,-2.670782804E0,-2.162889957E0,3.463384242E0
1.199469970E-1,-8.715136051E-1,-2.599404097E0,-2.646380424E0,3.810481200E0
1.249514250E-1,-1.044274449E0,-2.588035345E0,-2.867230892E0,4.001180958E0
1.299558520E-1,-1.210001826E0,-2.202257156E0,-2.930171967E0,3.860045175E0
1.349602790E-1,-2.003771305E0,-1.546687007E0,-2.544925213E0,3.589426762E0
1.399647060E-1,-2.407169104E0,-1.037585020E0,-2.499771595E0,3.622140775E0
1.449691330E-1,-2.560766935E0,-5.923136473E-1,-2.684417725E0,3.756921782E0
1.499735600E-1,-2.584354877E0,-2.153410912E-1,-2.593266487E0,3.667464109E0
1.549779870E-1,-2.380933523E0,1.432405710E-1,-2.452871323E0,3.421394457E0
1.599824140E-1,-2.062259912E0,5.177005529E-1,-2.287069798E0,3.122758087E0
1.649868410E-1,-1.767083883E0,9.090136290E-1,-2.007431507E0,2.824654401E0
1.699912680E-1,-8.534786701E-1,1.123891950E0,-1.764439106E0,2.259381401E0
1.749956950E-1,-8.074204922E-1,1.201592803E0,-1.365525246E0,1.990078469E0
1.800001220E-1,-8.692758083E-1,1.249075174E0,-1.091712475E0,1.872876224E0
1.850045500E-1,-7.570610046E-1,1.225735188E0,-9.791722298E-1,1.741937533E0
1.900089770E-1,-4.656958580E-1,1.170919895E0,-1.007749081E0,1.613531606E0
1.950134040E-1,-1.347368956E-1,1.150428772E0,-1.098066807E0,1.596054856E0
2.000178310E-1,3.207442760E-1,9.899280071E-1,-1.411309242E0,1.753461755E0
2.050222580E-1,4.547516108E-1,8.356785178E-1,-1.653396130E0,1.907583910E0
2.100266850E-1,4.808592796E-1,6.898781061E-1,-1.878138065E0,2.057804665E0
2.150311120E-1,4.338411093E-1,5.690104365E-1,-2.091327667E0,2.210348931E0
2.200355390E-1,4.123975039E-1,4.526672661E-1,-2.149168015E0,2.234704121E0
2.250399660E-1,3.764137030E-1,3.212590218E-1,-2.112057686E0,2.169258469E0
2.300443930E-1,3.230556250E-1,1.879518628E-1,-1.852013588E0,1.889350462E0
2.350488200E-1,3.246974945E-1,2.856695652E-1,-1.594352245E0,1.651966902E0
2.400532470E-1,3.081548214E-1,3.192872405E-1,-1.311018467E0,1.384078450E0
2.450576750E-1,2.063350677E-1,2.666335702E-1,-9.511938095E-1,1.009176538E0
2.500621020E-1,-3.297388554E-2,1.894557476E-1,-2.310180664E-1,3.005829410E-1
2.550665290E-1,-3.236762285E-1,6.357097626E-2,5.797319412E-1,6.670057673E-1
2.600709560E-1,-6.597939730E-1,1.660302281E-1,1.418945312E0,1.573626361E0
2.650753830E-1,-9.035912752E-1,1.865842938E-1,2.230541229E0,2.413836172E0
2.700798100E-1,-1.124599576E0,1.778765321E-1,2.964540482E0,3.175667573E0
2.750842370E-1,-1.210494637E0,1.126787663E-1,3.591073036E0,3.791279378E0
2.800886640E-1,-9.519622326E-1,2.590560913E-2,3.620595932E0,3.743743861E0
2.850930910E-1,-7.012703419E-1,1.836663485E-2,3.459547997E0,3.529956057E0
2.900975180E-1,-6.721154451E-1,7.254713774E-2,3.591425896E0,3.654496165E0
2.951019970E-1,-7.879945040E-1,1.528090835E-1,3.809563637E0,3.893207040E0
3.001064770E-1,-1.041629314E0,8.806729317E-2,3.581615448E0,3.731047667E0
3.051109560E-1,-1.347411752E0,-2.631664276E-2,3.164861679E0,3.439848898E0
3.101154350E-1,-1.735143781E0,-1.018002629E-1,2.934135437E0,3.410313475E0
3.151199140E-1,-2.112750530E0,-9.821474552E-3,2.641169548E0,3.382245977E0
3.201243930E-1,-2.281211376E0,2.008886933E-1,1.900417328E0,2.975880984E0
3.251288720E-1,-2.110484600E0,4.433711171E-1,9.490718842E-1,2.356153780E0
3.301333520E-1,-1.680188179E0,5.792728066E-1,-2.713966370E-2,1.777449257E0
3.351378310E-1,-1.232274055E0,6.893486977E-1,-9.442682266E-1,1.698629877E0
3.401423100E-1,-8.315858841E-1,7.824407816E-1,-1.790701389E0,2.123760845E0
3.451467890E-1,-6.279451847E-1,9.093732238E-1,-2.512961388E0,2.745223079E0
3.501512680E-1,-8.155829906E-1,1.077505350E0,-2.954507351E0,3.248893209E0
3.551557470E-1,-1.231762648E0,8.964769840E-1,-3.107197762E0,3.460576272E0
3.601602270E-1,-1.419396877E0,7.587812543E-1,-3.137642860E0,3.526363454E0
3.651647060E-1,-1.689281464E0,5.879650116E-1,-2.953764915E0,3.453129290E0
3.701691850E-1,-1.958206177E0,5.088989139E-1,-2.444577694E0,3.173249066E0
3.751736640E-1,-2.245202303E0,5.072755814E-1,-1.628401279E0,2.819566035E0
3.801781430E-1,-2.454914570E0,5.877159238E-1,-8.815779686E-1,2.673797911E0
3.851826220E-1,-2.524528027E0,6.273350120E-1,3.274106979E-1,2.621829273E0
3.901871020E-1,-2.460587978E0,7.921071053E-1,1.923878670E0,3.222302903E0
3.951915810E-1,-2.616355181E0,5.002200007E-1,3.902583122E0,4.725006826E0
4.001960600E-1,-2.143433571E0,2.764965296E-1,5.907248497E0,6.290178265E0
4.052005390E-1,-1.407981873E0,1.932528019E-1,7.148736954E0,7.288634964E0
4.102050180E-1,-3.096091747E-1,1.447615623E-1,8.156157494E0,8.163315430E0
4.152094970E-1,9.009220600E-1,-1.133711338E-1,8.706118584E0,8.753343039E0
4.202139770E-1,1.941303968E0,-4.283205271E-1,8.852851868E0,9.073318344E0
4.252184560E-1,2.807379246E0,-7.950699329E-1,8.649715424E0,9.128586492E0
4.302229350E-1,3.870607853E0,-2.296284676E0,1.109646606E1,1.197439299E1
4.352274140E-1,5.452184677E0,-3.954279184E0,1.263516045E1,1.431816752E1
4.402318930E-1,5.674283981E0,-2.236711025E0,6.695211411E0,9.056833373E0
4.452363720E-1,4.874321938E0,-1.804541469E0,5.400783539E0,7.495588509E0
4.502408520E-1,3.149869442E0,-1.111035585E0,5.601774216E0,6.521959210E0
4.552453310E-1,1.341955185E0,-1.511708379E0,5.762511253E0,6.106770168E0
4.602498100E-1,-1.209046841E-1,-2.155694485E0,4.120398521E0,4.651808318E0
4.652542890E-1,-1.679822922E0,-2.762339830E0,2.940866470E0,4.370471597E0
4.702587680E-1,-3.097383499E0,-2.681205273E0,2.008698463E0,4.562621590E0
4.752632470E-1,-4.061179161E0,-1.937114358E0,1.011779785E0,4.611863674E0
4.802677270E-1,-4.653736115E0,-1.344880342E0,-1.451616287E-1,4.846342421E0
4.852722060E-1,-4.812235832E0,-8.623654842E-1,-1.394632339E0,5.083924399E0
4.902766850E-1,-4.361723900E0,-3.477122784E-1,-2.107089996E0,4.856476857E0
4.952811640E-1,-3.538243771E0,1.754781008E-1,-2.030060768E0,4.083026851E0
5.002856430E-1,-2.890044928E0,7.077734470E-1,-1.942221165E0,3.553241617E0
5.052901220E-1,-2.039572477E0,1.263410091E0,-1.840437412E0,3.023784188E0
5.102946020E-1,-7.635324001E-1,1.925055265E0,-1.284332275E0,2.436868666E0
5.152990810E-1,2.271590233E-1,2.670377254E0,-1.257524490E-1,2.682970291E0
5.203035600E-1,4.951777458E-1,3.352819920E0,8.727912903E-1,3.499766714E0
5.253080390E-1,1.157016993E0,3.827045441E0,1.361001015E0,4.223421467E0
5.303125180E-1,2.080620289E0,4.309730530E0,1.704522133E0,5.080172608E0
5.353169970E-1,2.577984095E0,4.716747761E0,2.014130592E0,5.740246813E0
5.403214770E-1,2.980552673E0,4.888891220E0,2.127559662E0,6.108310873E0
5.453259560E-1,3.386491060E0,4.658806324E0,1.929869652E0,6.074306128E0
5.503304350E-1,3.537787199E0,4.030564785E0,1.950511932E0,5.706652920E0
5.553349140E-1,3.577484369E0,3.162675142E0,2.228992462E0,5.269659938E0
5.603393930E-1,4.367730618E0,2.324959040E0,1.837749481E0,5.278241036E0
5.653438720E-1,5.612874985E0,1.240587473E0,8.298845291E-1,5.807936915E0
5.703483520E-1,5.871552944E0,2.379499972E-1,1.559638977E-2,5.876393233E0
5.753528310E-1,5.260638237E0,-2.386514843E-1,-4.788875580E-2,5.266266469E0
5.803573100E-1,4.322923660E0,-5.311182141E-1,-5.441036224E-1,4.389282889E0
5.853617890E-1,3.189537048E0,-6.272945404E-1,-1.075530052E0,3.423946541E0
5.903662680E-1,2.011554241E0,-4.709326625E-1,-2.666537762E0,3.373210885E0
5.953707470E-1,7.319745421E-1,-3.135203123E-1,-4.334323406E0,4.406862955E0
6.003752270E-1,4.934918284E-1,-1.820524335E-1,-5.694134712E0,5.718378039E0
6.053797060E-1,8.396971226E-2,-2.305700779E-1,-5.837634087E0,5.842789163E0
6.103841850E-1,4.119781256E-1,-6.503173709E-1,-5.340673923E0,5.395872183E0
6.153886640E-1,1.555093169E0,-9.144141674E-1,-5.135239124E0,5.442898942E0
6.203931430E-1,2.219782829E0,-5.859431624E-1,-5.504605293E0,5.964180131E0
6.253976220E-1,2.170003414E0,8.907020092E-2,-6.098131180E0,6.473333933E0
6.304021020E-1,1.870517254E0,6.433449984E-1,-6.914567947E0,7.191938368E0
6.354065810E-1,1.670935154E0,7.841349840E-1,-7.976110935E0,8.186894259E0
6.404110600E-1,1.979390621E0,6.107369661E-1,-9.081531525E0,9.314784040E0
6.454155390E-1,2.524403811E0,3.165565729E-1,-1.010686398E1,1.042216494E1
6.504199660E-1,3.054913521E0,-9.209954739E-2,-1.068669891E1,1.111514789E1
6.554243930E-1,3.931104660E0,-6.238521338E-1,-1.085721111E1,1.156381462E1
6.604288200E-1,4.492933273E0,-1.002530336E0,-1.086338711E1,1.179850397E1
6.654332470E-1,4.553908348E0,-1.096469402E0,-1.044043732E1,1.144303534E1
6.704376750E-1,4.304566860E0,-1.213308930E0,-9.577614784E0,1.057034150E1
6.754421020E-1,4.226786137E0,-1.316925764E0,-8.701395988E0,9.762904622E0
6.804465290E-1,4.364818096E0,-1.214478731E0,-8.363363266E0,9.511700201E0
6.854509560E-1,4.068431854E0,-1.221663952E0,-8.170490265E0,9.208773628E0
6.904553830E-1,3.379173517E0,-1.442243576E0,-7.718245983E0,8.548110975E0
6.954598100E-1,2.771535635E0,-1.888317585E0,-7.342166901E0,8.071837949E0
7.004642370E-1,2.215975046E0,-2.438761473E0,-7.427217484E0,8.125371528E0
7.054686640E-1,1.303441525E0,-3.287659645E0,-7.850207329E0,8.610076704E0
7.104730910E-1,2.491722107E-1,-4.209907532E0,-8.378660202E0,9.380157515E0
7.154775180E-1,-7.609927654E-1,-5.081666946E0,-8.800671577E0,1.019089148E1
7.204819450E-1,-1.711383820E0,-5.889196396E0,-9.134498596E0,1.100229673E1
7.254863720E-1,-2.637609482E0,-6.638268948E0,-9.250953674E0,1.168776036E1
7.304908000E-1,-3.273803473E0,-7.106627464E0,-9.088726997E0,1.199278539E1
7.354952270E-1,-3.924795389E0,-7.297152996E0,-8.815765381E0,1.209835443E1
7.404996540E-1,-4.348155975E0,-7.123279572E0,-8.631311417E0,1.200612798E1
7.455040810E-1,-4.417046070E0,-6.666707039E0,-8.552423477E0,1.170893787E1
7.505085080E-1,-4.059907913E0,-6.060059071E0,-8.469087601E0,1.117732584E1
7.555129350E-1,-3.703923225E0,-5.562843323E0,-8.158783913E0,1.054656475E1
7.605173620E-1,-3.263450623E0,-5.299913406E0,-7.384441853E0,9.657596676E0
7.655217890E-1,-2.834835291E0,-5.291140079E0,-6.192408562E0,8.624290015E0
7.705262160E-1,-2.610465288E0,-5.484527588E0,-4.921584606E0,7.817708547E0
7.755306430E-1,-2.568617821E0,-5.913658619E0,-3.624225855E0,7.396226661E0
7.805350700E-1,-2.619483232E0,-6.468471050E0,-2.298891544E0,7.347633120E0
7.855394970E-1,-2.773634195E0,-6.920070648E0,-1.025014400E0,7.525362380E0
7.905439250E-1,-2.897272825E0,-7.230792046E0,1.936850548E-1,7.792050907E0
7.955483520E-1,-3.161420107E0,-7.514732361E0,8.548245430E-1,8.197347409E0
8.005527790E-1,-3.483961821E0,-7.864593983E0,1.006270409E0,8.660393098E0
8.055572060E-1,-3.798690557E0,-8.376247406E0,8.858323097E-1,9.239928000E0
8.105616330E-1,-4.030464172E0,-8.859217644E0,8.000626564E-1,9.765781021E0
8.155660600E-1,-4.415451527E0,-9.110126495E0,8.353209496E-1,1.015816805E1
8.205704870E-1,-4.947029591E0,-9.021716118E0,8.355112076E-1,1.032291347E1
8.255749140E-1,-5.472780228E0,-8.619737625E0,7.237162590E-1,1.023596431E1
8.305793410E-1,-5.722314358E0,-8.081263542E0,3.714275360E-1,9.909069606E0
8.355837680E-1,-5.521392822E0,-7.687262535E0,-1.690733433E-1,9.466169752E0
8.405881950E-1,-5.068756580E0,-7.401915073E0,-9.101334810E-1,9.017149382E0
8.455926750E-1,-4.480014801E0,-6.828196526E0,-1.655171156E0,8.332730163E0
8.505971540E-1,-3.762808561E0,-6.183811188E0,-2.276780605E0,7.588279054E0
8.556016330E-1,-2.419340611E0,-5.808146954E0,-2.473007679E0,6.760439853E0
8.606061120E-1,-3.037028313E-1,-5.709020138E0,-2.191947222E0,6.122889756E0
8.656105910E-1,2.360082626E0,-5.491323471E0,-1.453170896E0,6.151124216E0
8.706150700E-1,5.062619686E0,-4.809000492E0,-5.308433175E-1,7.002742209E0
8.756195500E-1,7.353523731E0,-3.911510229E0,5.097455382E-1,8.344702754E0
8.806240290E-1,9.318523407E0,-3.070180416E0,1.881466031E0,9.990035070E0
8.856285080E-1,1.118101120E1,-2.274607897E0,3.716722250E0,1.200011987E1
8.906329870E-1,1.284929276E1,-1.395984173E0,5.928980827E0,1.421991244E1
8.956374660E-1,1.416567230E1,-6.393454075E-1,7.915031433E0,1.623954300E1
9.006419450E-1,1.475448704E1,-1.691820621E-1,9.323791504E0,1.745441487E1
9.056464250E-1,1.510867882E1,1.281177998E-1,1.024869251E1,1.825717087E1
9.106509040E-1,1.556103325E1,6.845250130E-1,1.084177113E1,1.897783790E1
9.156553830E-1,1.607076073E1,1.481901646E0,1.092047596E1,1.948646140E1
9.206598620E-1,1.664459801E1,1.888214588E0,1.015088558E1,1.958694655E1
9.256643410E-1,1.683213425E1,2.171307087E0,8.987323761E0,1.920435644E1
9.306688200E-1,1.699995804E1,2.159690142E0,7.803174019E0,1.882956079E1
9.356733000E-1,1.658349609E1,2.080953121E0,6.705688953E0,1.800858054E1
9.406777790E-1,1.556931496E1,2.243240356E0,5.705982208E0,1.673301911E1
9.456822580E-1,1.409220409E1,2.692432642E0,4.601741314E0,1.506703132E1
9.506867370E-1,1.240189552E1,3.062329292E0,3.444311619E0,1.323057655E1
9.556912160E-1,1.119125652E1,3.139204025E0,2.171447992E0,1.182429748E1
9.606956950E-1,1.049974823E1,2.282810688E0,5.109575987E-1,1.075718435E1
9.657001750E-1,9.371072769E0,1.314709425E0,-3.556672335E-1,9.469528230E0
9.707046540E-1,8.614415169E0,1.015726328E0,-7.216840982E-1,8.704060926E0
9.757091330E-1,8.691184998E0,1.140332460E0,-1.292823672E0,8.860499299E0
9.807136120E-1,8.922250748E0,1.510642529E0,-1.917319059E0,9.250119547E0
9.857180910E-1,9.208932877E0,1.959880352E0,-4.306099415E0,1.035316705E1
9.907225700E-1,1.053041458E1,2.708816528E0,-8.057559967E0,1.353335106E1
9.957270500E-1,1.421420479E1,4.981544971E0,-1.331265926E1,2.010189804E1
1.000731529E0,1.848580933E1,9.942022324E0,-2.188540459E1,3.032391611E1
1.005736008E0,2.100745773E1,1.495608425E1,-3.147691345E1,4.069144648E1
1.010740487E0,1.537888718E1,9.018455505E0,-1.298784924E1,2.205735565E1
1.015744966E0,1.357373142E1,4.915231228E0,-5.306496620E0,1.538065633E1
1.020749445E0,1.246802044E1,3.422360420E0,-1.655347824E0,1.303473287E1
1.025753925E0,1.107989693E1,3.102734566E0,1.690885305E0,1.162971069E1
1.030758404E0,1.018310833E1,2.828477383E0,3.596338987E0,1.116376431E1
1.035762883E0,1.012368965E1,2.449258804E0,4.080911636E0,1.118667961E1
1.040767362E0,9.411949158E0,1.869214058E0,4.316578865E0,1.052195805E1
1.045771841E0,8.763585091E0,1.479107857E0,4.003337860E0,9.747558551E0
1.050776320E0,8.481511116E0,8.156909943E-1,3.588810921E0,9.245590648E0
1.055780800E0,8.333645821E0,6.178929806E-1,2.871809244E0,8.836217105E0
1.060785279E0,7.981000900E0,8.889651299E-1,9.637537003E-1,8.087982169E0
1.065789758E0,7.560813904E0,2.221990108E0,-4.314512253E0,8.984328740E0
1.070794237E0,6.199021339E0,4.500757217E0,-1.316950130E1,1.523549952E1
1.075798716E0,4.932000160E0,4.068837643E0,-1.213885880E1,1.371976524E1
1.080803195E0,4.019591331E0,3.466675282E0,-1.288931656E1,1.393949186E1
1.085807675E0,3.183831215E0,2.027924061E0,-8.741987228E0,9.522163510E0
1.090812154E0,3.240464211E0,4.872121811E-1,-4.133638382E0,5.274936045E0
1.095816633E0,3.554549217E0,1.902902126E-1,-1.093837500E0,3.723910710E0
1.100821112E0,3.754683495E0,1.037371397E0,7.256748080E-1,3.962371952E0
1.105825591E0,3.957723618E0,1.931457758E0,1.304491401E0,4.593016777E0
1.110830070E0,4.028108597E0,2.472804070E0,1.275490046E0,4.895640274E0
1.115834550E0,3.617879868E0,2.885592937E0,1.304493904E0,4.808056331E0
1.120839029E0,3.339720726E0,2.560673475E0,1.623570442E0,4.510738759E0
1.125843508E0,2.826348305E0,1.954310417E0,2.361918926E0,4.169680439E0
1.130847987E0,1.613075256E0,1.285125256E0,2.722989321E0,3.415879030E0
1.135852466E0,8.965864182E-1,7.871007919E-1,2.837531090E0,3.078145147E0
1.140856945E0,1.844120026E-1,3.477115631E-1,2.628177643E0,2.657485436E0
1.145861425E0,-1.133288383E0,7.807159424E-2,1.851293921E0,2.172032900E0
1.150865904E0,-8.607120514E-1,2.697827816E-1,1.600144386E0,1.836864187E0
1.155870331E0,1.440753937E-1,1.114006519E0,2.473114967E0,2.716259539E0
1.160874758E0,-2.354574203E-1,1.549960732E0,2.379220724E0,2.849299865E0
1.165879185E0,-1.472252846E0,1.530407667E0,1.823436975E0,2.799035275E0
1.170883612E0,2.449431419E0,2.501799583E0,2.833829880E0,4.504365352E0
1.175888039E0,5.665555000E0,5.054081917E0,6.337226391E0,9.889524549E0
1.180892466E0,-3.716872215E0,2.735247612E0,8.336113691E-1,4.689523054E0
1.185896893E0,-5.288132191E0,1.435691595E0,1.148617625E0,5.598649379E0
1.190901320E0,-7.186869621E0,5.865631104E-1,1.959063530E0,7.472153716E0
1.195905747E0,-8.924512863E0,-3.381490707E-1,1.596283674E0,9.072452602E0
1.200910175E0,-9.257169724E0,-5.888216496E-1,1.713058233E0,9.432734001E0
1.205914602E0,-1.011337662E1,-4.817459583E-1,2.128776312E0,1.034621449E1
1.210919029E0,-1.008522034E1,-3.161504269E-1,3.032820940E0,1.053611044E1
1.215923456E0,-9.868472099E0,-6.321442127E-1,4.554047585E0,1.088695078E1
1.220927883E0,-1.080391788E1,-1.793566823E0,5.073696136E0,1.206995924E1
1.225932310E0,-1.226613426E1,-2.551612377E0,3.297789574E0,1.295546956E1
1.230936737E0,-1.288867092E1,-2.050920963E0,2.425143242E0,1.327423951E1
1.235941164E0,-1.213634682E1,-1.752009273E0,3.001406431E0,1.262413922E1
1.240945591E0,-1.131264114E1,-1.219537973E0,2.217093945E0,1.159217961E1
1.245950018E0,-9.870743752E0,-1.315176725E0,8.818172216E-1,9.996943215E0
1.250954445E0,-8.749142647E0,3.316967487E-1,9.318929315E-1,8.804881840E0
1.255958872E0,-7.303837776E0,1.171406388E0,4.612808824E-1,7.411546346E0
1.260963300E0,-5.951673985E0,1.585660458E0,-2.092613727E-1,6.162834788E0
1.265967727E0,-5.798966408E0,1.508280158E0,-9.353197366E-2,5.992634534E0
1.270972154E0,-5.243021965E0,1.724382997E0,2.602898479E-1,5.525443588E0
1.275976581E0,-4.819676876E0,2.637696028E0,8.766763806E-1,5.563747568E0
1.280981008E0,-5.195673943E0,2.749355793E0,1.262189507E0,6.012246448E0
1.285985435E0,-5.217914581E0,2.240758419E0,1.217701197E0,5.807790206E0
1.290989862E0,-5.326134682E0,2.189230680E0,1.208773255E0,5.884010061E0
1.295994289E0,-5.505108833E0,2.113496304E0,1.917529106E0,6.200807025E0
1.300998716E0,-5.615760803E0,1.581012726E0,2.729274273E0,6.440908996E0
1.306003143E0,-5.476820946E0,1.094745755E0,3.527904510E0,6.606068890E0
1.311007570E0,-5.642093182E0,6.412426233E-1,4.355707645E0,7.156577161E0
1.316011997E0,-4.955357552E0,7.896769047E-2,4.571922302E0,6.742720363E0
1.321016425E0,-3.682219028E0,-2.486026287E-1,4.113908291E0,5.526733363E0
1.326020852E0,-3.785190582E0,-3.668465614E-1,3.278755188E0,5.021203016E0
1.331025279E0,-3.245836735E0,-4.421961308E-1,2.776670694E0,4.294286166E0
1.336029706E0,-3.011338234E0,-1.699776649E-1,2.102992535E0,3.676904672E0
1.341034133E0,-2.493593693E0,2.438503504E-1,1.210563302E0,2.782613161E0
1.346038560E0,-1.827091217E0,3.932383060E-1,3.621187210E-1,1.903688170E0
1.351042987E0,-6.786203384E-1,5.937709808E-1,-3.268628120E-1,9.591292089E-1
1.356047466E0,9.208879471E-1,6.906380653E-1,-4.939215183E-1,1.252586929E0
1.361051945E0,2.143507957E0,3.993408680E-1,-8.319731951E-1,2.333726396E0
1.366056425E0,2.717987061E0,-1.175889969E-1,-1.185694695E0,2.967684744E0
1.371060904E0,4.067515373E0,-2.545874119E-1,-1.610221863E0,4.382044102E0
1.376065383E0,4.370921135E0,-1.774730682E-1,-1.871891379E0,4.758195624E0
1.381069862E0,4.638683319E0,-5.509400368E-2,-2.035116911E0,5.065779222E0
